Asof;SecurityId;Price;AdjustedPrice
03.01.1995 00:00:00;404066;7.5506;7.5506
04.01.1995 00:00:00;404066;7.53018125;7.53018125
05.01.1995 00:00:00;404066;7.3922625;7.3922625
06.01.1995 00:00:00;404066;7.301825;7.301825
09.01.1995 00:00:00;404066;7.05436875;7.05436875
10.01.1995 00:00:00;404066;6.7887375;6.7887375
11.01.1995 00:00:00;404066;6.91693125;6.91693125
12.01.1995 00:00:00;404066;6.7318125;6.7318125
13.01.1995 00:00:00;404066;6.85825;6.85825
16.01.1995 00:00:00;404066;6.7507875;6.7507875
17.01.1995 00:00:00;404066;6.8966625;6.8966625
18.01.1995 00:00:00;404066;7.13575;7.13575
19.01.1995 00:00:00;404066;7.0056;7.0056
20.01.1995 00:00:00;404066;7.0035;7.0035
23.01.1995 00:00:00;404066;6.762875;6.762875
24.01.1995 00:00:00;404066;7.00621875;7.00621875
25.01.1995 00:00:00;404066;6.975;6.975
26.01.1995 00:00:00;404066;7.156725;7.156725
27.01.1995 00:00:00;404066;7.02253125;7.02253125
30.01.1995 00:00:00;404066;6.87025625;6.87025625
31.01.1995 00:00:00;404066;6.91185;6.91185
01.02.1995 00:00:00;404066;6.960525;6.960525
02.02.1995 00:00:00;404066;6.9372875;6.9372875
03.02.1995 00:00:00;404066;7.0254;7.0254
06.02.1995 00:00:00;404066;7.5315625;7.5315625
07.02.1995 00:00:00;404066;7.363125;7.363125
08.02.1995 00:00:00;404066;7.4423;7.4423
09.02.1995 00:00:00;404066;7.32375;7.32375
10.02.1995 00:00:00;404066;7.4300625;7.4300625
13.02.1995 00:00:00;404066;7.53396875;7.53396875
14.02.1995 00:00:00;404066;7.49715625;7.49715625
15.02.1995 00:00:00;404066;7.6323875;7.6323875
16.02.1995 00:00:00;404066;7.631;7.631
17.02.1995 00:00:00;404066;7.758225;7.758225
21.02.1995 00:00:00;404066;7.73875;7.73875
22.02.1995 00:00:00;404066;7.66201875;7.66201875
23.02.1995 00:00:00;404066;7.74984375;7.74984375
24.02.1995 00:00:00;404066;7.6588;7.6588
27.02.1995 00:00:00;404066;7.68178125;7.68178125
28.02.1995 00:00:00;404066;7.77071875;7.77071875
01.03.1995 00:00:00;404066;7.72303125;7.72303125
02.03.1995 00:00:00;404066;7.82565;7.82565
03.03.1995 00:00:00;404066;7.64715;7.64715
06.03.1995 00:00:00;404066;7.4649;7.4649
07.03.1995 00:00:00;404066;7.2037;7.2037
08.03.1995 00:00:00;404066;7.43671875;7.43671875
09.03.1995 00:00:00;404066;7.5099375;7.5099375
10.03.1995 00:00:00;404066;7.44459375;7.44459375
13.03.1995 00:00:00;404066;7.467925;7.467925
14.03.1995 00:00:00;404066;7.59255;7.59255
15.03.1995 00:00:00;404066;7.5618125;7.5618125
16.03.1995 00:00:00;404066;7.7636625;7.7636625
17.03.1995 00:00:00;404066;7.7092875;7.7092875
20.03.1995 00:00:00;404066;7.6543875;7.6543875
21.03.1995 00:00:00;404066;7.6755;7.6755
22.03.1995 00:00:00;404066;7.62875;7.62875
23.03.1995 00:00:00;404066;7.7655375;7.7655375
24.03.1995 00:00:00;404066;7.6999375;7.6999375
27.03.1995 00:00:00;404066;7.898;7.898
28.03.1995 00:00:00;404066;7.921;7.921
29.03.1995 00:00:00;404066;7.956;7.956
30.03.1995 00:00:00;404066;8.484675;8.484675
31.03.1995 00:00:00;404066;8.63721875;8.63721875
03.04.1995 00:00:00;404066;8.37893125;8.37893125
04.04.1995 00:00:00;404066;8.3143;8.3143
05.04.1995 00:00:00;404066;8.29828125;8.29828125
06.04.1995 00:00:00;404066;8.02569375;8.02569375
07.04.1995 00:00:00;404066;7.934625;7.934625
10.04.1995 00:00:00;404066;8.30185;8.30185
11.04.1995 00:00:00;404066;8.23975;8.23975
12.04.1995 00:00:00;404066;8.29725;8.29725
13.04.1995 00:00:00;404066;8.1673;8.1673
17.04.1995 00:00:00;404066;8.0454;8.0454
18.04.1995 00:00:00;404066;7.74745;7.74745
19.04.1995 00:00:00;404066;7.797375;7.797375
20.04.1995 00:00:00;404066;8.18509375;8.18509375
21.04.1995 00:00:00;404066;8.53125;8.53125
24.04.1995 00:00:00;404066;8.381375;8.381375
25.04.1995 00:00:00;404066;8.17774375;8.17774375
26.04.1995 00:00:00;404066;8.11340625;8.11340625
27.04.1995 00:00:00;404066;7.95155625;7.95155625
28.04.1995 00:00:00;404066;8.1229125;8.1229125
01.05.1995 00:00:00;404066;8.1696;8.1696
02.05.1995 00:00:00;404066;8.10635;8.10635
03.05.1995 00:00:00;404066;8.0799;8.0799
04.05.1995 00:00:00;404066;8.019975;8.019975
05.05.1995 00:00:00;404066;7.94250625;7.94250625
08.05.1995 00:00:00;404066;7.8983875;7.8983875
09.05.1995 00:00:00;404066;8.184;8.184
10.05.1995 00:00:00;404066;8.433625;8.433625
11.05.1995 00:00:00;404066;8.5222875;8.5222875
12.05.1995 00:00:00;404066;8.55740625;8.55740625
15.05.1995 00:00:00;404066;8.696175;8.696175
16.05.1995 00:00:00;404066;8.57511875;8.57511875
17.05.1995 00:00:00;404066;8.5711125;8.5711125
18.05.1995 00:00:00;404066;8.44545;8.44545
19.05.1995 00:00:00;404066;8.5008;8.5008
22.05.1995 00:00:00;404066;8.372;8.372
23.05.1995 00:00:00;404066;8.675025;8.675025
24.05.1995 00:00:00;404066;8.96390625;8.96390625
25.05.1995 00:00:00;404066;8.717875;8.717875
26.05.1995 00:00:00;404066;8.41474375;8.41474375
30.05.1995 00:00:00;404066;8.56075625;8.56075625
31.05.1995 00:00:00;404066;8.751825;8.751825
01.06.1995 00:00:00;404066;8.71515625;8.71515625
02.06.1995 00:00:00;404066;8.552375;8.552375
05.06.1995 00:00:00;404066;8.6172;8.6172
06.06.1995 00:00:00;404066;8.53335;8.53335
07.06.1995 00:00:00;404066;8.35605;8.35605
08.06.1995 00:00:00;404066;8.34234375;8.34234375
09.06.1995 00:00:00;404066;8.3088125;8.3088125
12.06.1995 00:00:00;404066;8.2409;8.2409
13.06.1995 00:00:00;404066;8.22585;8.22585
14.06.1995 00:00:00;404066;8.2695;8.2695
15.06.1995 00:00:00;404066;8.37;8.37
16.06.1995 00:00:00;404066;8.1433625;8.1433625
19.06.1995 00:00:00;404066;8.1592875;8.1592875
20.06.1995 00:00:00;404066;7.60415625;7.60415625
21.06.1995 00:00:00;404066;7.4294125;7.4294125
22.06.1995 00:00:00;404066;7.37034375;7.37034375
23.06.1995 00:00:00;404066;7.531;7.531
26.06.1995 00:00:00;404066;7.5988125;7.5988125
27.06.1995 00:00:00;404066;7.6574125;7.6574125
28.06.1995 00:00:00;404066;7.50645;7.50645
29.06.1995 00:00:00;404066;7.38661875;7.38661875
30.06.1995 00:00:00;404066;7.675575;7.675575
03.07.1995 00:00:00;404066;7.7175;7.7175
05.07.1995 00:00:00;404066;7.45395625;7.45395625
06.07.1995 00:00:00;404066;7.42665;7.42665
07.07.1995 00:00:00;404066;7.4739;7.4739
10.07.1995 00:00:00;404066;7.3226;7.3226
11.07.1995 00:00:00;404066;7.494125;7.494125
12.07.1995 00:00:00;404066;7.539;7.539
13.07.1995 00:00:00;404066;7.41793125;7.41793125
14.07.1995 00:00:00;404066;7.37455;7.37455
17.07.1995 00:00:00;404066;7.4482;7.4482
18.07.1995 00:00:00;404066;7.490925;7.490925
19.07.1995 00:00:00;404066;7.4277;7.4277
20.07.1995 00:00:00;404066;7.4698;7.4698
21.07.1995 00:00:00;404066;7.56140625;7.56140625
24.07.1995 00:00:00;404066;7.607775;7.607775
25.07.1995 00:00:00;404066;7.7527875;7.7527875
26.07.1995 00:00:00;404066;7.57636875;7.57636875
27.07.1995 00:00:00;404066;7.465575;7.465575
28.07.1995 00:00:00;404066;7.592725;7.592725
31.07.1995 00:00:00;404066;7.65416875;7.65416875
01.08.1995 00:00:00;404066;7.343825;7.343825
02.08.1995 00:00:00;404066;7.45655;7.45655
03.08.1995 00:00:00;404066;7.5859875;7.5859875
04.08.1995 00:00:00;404066;7.63515;7.63515
07.08.1995 00:00:00;404066;7.72495;7.72495
08.08.1995 00:00:00;404066;7.70034375;7.70034375
09.08.1995 00:00:00;404066;7.6383125;7.6383125
10.08.1995 00:00:00;404066;7.5374375;7.5374375
11.08.1995 00:00:00;404066;7.830625;7.830625
14.08.1995 00:00:00;404066;7.69335;7.69335
15.08.1995 00:00:00;404066;7.917;7.917
16.08.1995 00:00:00;404066;7.86465625;7.86465625
17.08.1995 00:00:00;404066;7.9768;7.9768
18.08.1995 00:00:00;404066;8.161275;8.161275
21.08.1995 00:00:00;404066;8.13965;8.13965
22.08.1995 00:00:00;404066;8.40639375;8.40639375
23.08.1995 00:00:00;404066;8.535375;8.535375
24.08.1995 00:00:00;404066;8.3105;8.3105
25.08.1995 00:00:00;404066;8.2731;8.2731
28.08.1995 00:00:00;404066;8.31705;8.31705
29.08.1995 00:00:00;404066;8.35108125;8.35108125
30.08.1995 00:00:00;404066;8.53415;8.53415
31.08.1995 00:00:00;404066;8.7315375;8.7315375
01.09.1995 00:00:00;404066;8.9268625;8.9268625
05.09.1995 00:00:00;404066;9.01913125;9.01913125
06.09.1995 00:00:00;404066;9.066;9.066
07.09.1995 00:00:00;404066;9.1096;9.1096
08.09.1995 00:00:00;404066;8.965625;8.965625
11.09.1995 00:00:00;404066;9.0830625;9.0830625
12.09.1995 00:00:00;404066;9.26515625;9.26515625
13.09.1995 00:00:00;404066;9.2647125;9.2647125
14.09.1995 00:00:00;404066;9.26128125;9.26128125
15.09.1995 00:00:00;404066;9.4235625;9.4235625
18.09.1995 00:00:00;404066;9.4525;9.4525
19.09.1995 00:00:00;404066;9.36365625;9.36365625
20.09.1995 00:00:00;404066;8.9832;8.9832
21.09.1995 00:00:00;404066;8.82613125;8.82613125
22.09.1995 00:00:00;404066;8.55635;8.55635
25.09.1995 00:00:00;404066;8.4660625;8.4660625
26.09.1995 00:00:00;404066;8.32260625;8.32260625
27.09.1995 00:00:00;404066;8.37085;8.37085
28.09.1995 00:00:00;404066;8.181;8.181
29.09.1995 00:00:00;404066;7.9376625;7.9376625
02.10.1995 00:00:00;404066;8.17135;8.17135
03.10.1995 00:00:00;404066;8.3237375;8.3237375
04.10.1995 00:00:00;404066;8.28075;8.28075
05.10.1995 00:00:00;404066;8.04354375;8.04354375
06.10.1995 00:00:00;404066;8.0800875;8.0800875
09.10.1995 00:00:00;404066;7.9453;7.9453
10.10.1995 00:00:00;404066;7.78515;7.78515
11.10.1995 00:00:00;404066;7.78798125;7.78798125
12.10.1995 00:00:00;404066;7.9816;7.9816
13.10.1995 00:00:00;404066;8.07451875;8.07451875
16.10.1995 00:00:00;404066;7.9471875;7.9471875
17.10.1995 00:00:00;404066;7.9574;7.9574
18.10.1995 00:00:00;404066;7.6398;7.6398
19.10.1995 00:00:00;404066;7.5337875;7.5337875
20.10.1995 00:00:00;404066;7.32465;7.32465
23.10.1995 00:00:00;404066;7.067;7.067
24.10.1995 00:00:00;404066;7.025075;7.025075
25.10.1995 00:00:00;404066;6.71666875;6.71666875
26.10.1995 00:00:00;404066;6.71855625;6.71855625
27.10.1995 00:00:00;404066;7.02195;7.02195
30.10.1995 00:00:00;404066;7.14705;7.14705
31.10.1995 00:00:00;404066;7.201;7.201
01.11.1995 00:00:00;404066;7.229;7.229
02.11.1995 00:00:00;404066;7.1741875;7.1741875
03.11.1995 00:00:00;404066;7.19475;7.19475
06.11.1995 00:00:00;404066;7.09738125;7.09738125
07.11.1995 00:00:00;404066;7.2912875;7.2912875
08.11.1995 00:00:00;404066;7.265;7.265
09.11.1995 00:00:00;404066;7.2631125;7.2631125
10.11.1995 00:00:00;404066;7.11111875;7.11111875
13.11.1995 00:00:00;404066;7.39103125;7.39103125
14.11.1995 00:00:00;404066;7.17885;7.17885
15.11.1995 00:00:00;404066;7.179;7.179
16.11.1995 00:00:00;404066;7.753975;7.753975
17.11.1995 00:00:00;404066;7.77743125;7.77743125
20.11.1995 00:00:00;404066;7.4648125;7.4648125
21.11.1995 00:00:00;404066;7.7014125;7.7014125
22.11.1995 00:00:00;404066;7.78824375;7.78824375
24.11.1995 00:00:00;404066;7.7105625;7.7105625
27.11.1995 00:00:00;404066;7.6287375;7.6287375
28.11.1995 00:00:00;404066;7.68705;7.68705
29.11.1995 00:00:00;404066;7.66008125;7.66008125
30.11.1995 00:00:00;404066;7.7763;7.7763
01.12.1995 00:00:00;404066;7.80885625;7.80885625
04.12.1995 00:00:00;404066;7.8189375;7.8189375
05.12.1995 00:00:00;404066;7.88405;7.88405
06.12.1995 00:00:00;404066;8.0203125;8.0203125
07.12.1995 00:00:00;404066;8.1103;8.1103
08.12.1995 00:00:00;404066;8.36559375;8.36559375
11.12.1995 00:00:00;404066;8.679725;8.679725
12.12.1995 00:00:00;404066;8.700875;8.700875
13.12.1995 00:00:00;404066;8.9136;8.9136
14.12.1995 00:00:00;404066;8.6916375;8.6916375
15.12.1995 00:00:00;404066;8.8536;8.8536
18.12.1995 00:00:00;404066;8.73466875;8.73466875
19.12.1995 00:00:00;404066;8.9143;8.9143
20.12.1995 00:00:00;404066;8.87679375;8.87679375
21.12.1995 00:00:00;404066;8.87438125;8.87438125
22.12.1995 00:00:00;404066;8.8659375;8.8659375
26.12.1995 00:00:00;404066;8.83819375;8.83819375
27.12.1995 00:00:00;404066;8.694875;8.694875
28.12.1995 00:00:00;404066;9.05584375;9.05584375
29.12.1995 00:00:00;404066;8.8212;8.8212
02.01.1996 00:00:00;404066;8.9480625;8.9480625
03.01.1996 00:00:00;404066;8.8027125;8.8027125
04.01.1996 00:00:00;404066;8.886275;8.886275
05.01.1996 00:00:00;404066;8.8804125;8.8804125
08.01.1996 00:00:00;404066;9.016;9.016
09.01.1996 00:00:00;404066;8.8356;8.8356
10.01.1996 00:00:00;404066;8.7692875;8.7692875
11.01.1996 00:00:00;404066;8.52271875;8.52271875
12.01.1996 00:00:00;404066;8.5827375;8.5827375
15.01.1996 00:00:00;404066;8.51115;8.51115
16.01.1996 00:00:00;404066;8.5905;8.5905
17.01.1996 00:00:00;404066;8.63995;8.63995
18.01.1996 00:00:00;404066;8.70540625;8.70540625
19.01.1996 00:00:00;404066;8.70435;8.70435
22.01.1996 00:00:00;404066;8.8689;8.8689
23.01.1996 00:00:00;404066;8.7574375;8.7574375
24.01.1996 00:00:00;404066;8.917075;8.917075
25.01.1996 00:00:00;404066;9.0428125;9.0428125
26.01.1996 00:00:00;404066;8.95115;8.95115
29.01.1996 00:00:00;404066;9.1068;9.1068
30.01.1996 00:00:00;404066;9.17715;9.17715
31.01.1996 00:00:00;404066;9.267375;9.267375
01.02.1996 00:00:00;404066;9.47613125;9.47613125
02.02.1996 00:00:00;404066;9.32671875;9.32671875
05.02.1996 00:00:00;404066;9.11990625;9.11990625
06.02.1996 00:00:00;404066;9.08426875;9.08426875
07.02.1996 00:00:00;404066;9.2512;9.2512
08.02.1996 00:00:00;404066;9.3418875;9.3418875
09.02.1996 00:00:00;404066;9.43625;9.43625
12.02.1996 00:00:00;404066;9.8923125;9.8923125
13.02.1996 00:00:00;404066;9.6186;9.6186
14.02.1996 00:00:00;404066;9.8345625;9.8345625
15.02.1996 00:00:00;404066;10.409025;10.409025
16.02.1996 00:00:00;404066;10.0359;10.0359
20.02.1996 00:00:00;404066;9.84475;9.84475
21.02.1996 00:00:00;404066;9.98675;9.98675
22.02.1996 00:00:00;404066;9.916225;9.916225
23.02.1996 00:00:00;404066;9.94509375;9.94509375
26.02.1996 00:00:00;404066;9.7719375;9.7719375
27.02.1996 00:00:00;404066;9.77853125;9.77853125
28.02.1996 00:00:00;404066;9.61065625;9.61065625
29.02.1996 00:00:00;404066;9.39125;9.39125
01.03.1996 00:00:00;404066;9.43;9.43
04.03.1996 00:00:00;404066;9.5280875;9.5280875
05.03.1996 00:00:00;404066;9.435;9.435
06.03.1996 00:00:00;404066;9.6631875;9.6631875
07.03.1996 00:00:00;404066;9.637725;9.637725
08.03.1996 00:00:00;404066;9.43881875;9.43881875
11.03.1996 00:00:00;404066;9.32179375;9.32179375
12.03.1996 00:00:00;404066;9.2267;9.2267
13.03.1996 00:00:00;404066;9.32085;9.32085
14.03.1996 00:00:00;404066;9.5129375;9.5129375
15.03.1996 00:00:00;404066;9.125275;9.125275
18.03.1996 00:00:00;404066;9.622425;9.622425
19.03.1996 00:00:00;404066;9.56256875;9.56256875
20.03.1996 00:00:00;404066;9.3196125;9.3196125
21.03.1996 00:00:00;404066;9.261;9.261
22.03.1996 00:00:00;404066;9.1918125;9.1918125
25.03.1996 00:00:00;404066;9.49599375;9.49599375
26.03.1996 00:00:00;404066;9.531875;9.531875
27.03.1996 00:00:00;404066;9.9144375;9.9144375
28.03.1996 00:00:00;404066;9.94996875;9.94996875
29.03.1996 00:00:00;404066;9.95788125;9.95788125
01.04.1996 00:00:00;404066;10.13825;10.13825
02.04.1996 00:00:00;404066;10.36828125;10.36828125
03.04.1996 00:00:00;404066;10.4936625;10.4936625
04.04.1996 00:00:00;404066;10.40875;10.40875
08.04.1996 00:00:00;404066;10.2882375;10.2882375
09.04.1996 00:00:00;404066;10.50775;10.50775
10.04.1996 00:00:00;404066;10.66155;10.66155
11.04.1996 00:00:00;404066;10.55725;10.55725
12.04.1996 00:00:00;404066;10.24663125;10.24663125
15.04.1996 00:00:00;404066;10.43415;10.43415
16.04.1996 00:00:00;404066;10.43415;10.43415
17.04.1996 00:00:00;404066;10.3027625;10.3027625
18.04.1996 00:00:00;404066;10.02155;10.02155
19.04.1996 00:00:00;404066;10.27591875;10.27591875
22.04.1996 00:00:00;404066;10.559375;10.559375
23.04.1996 00:00:00;404066;10.72540625;10.72540625
24.04.1996 00:00:00;404066;10.94484375;10.94484375
25.04.1996 00:00:00;404066;10.8793875;10.8793875
26.04.1996 00:00:00;404066;10.57875;10.57875
29.04.1996 00:00:00;404066;10.5651875;10.5651875
30.04.1996 00:00:00;404066;10.381375;10.381375
01.05.1996 00:00:00;404066;10.1946;10.1946
02.05.1996 00:00:00;404066;10.276875;10.276875
03.05.1996 00:00:00;404066;10.34295;10.34295
06.05.1996 00:00:00;404066;10.2414375;10.2414375
07.05.1996 00:00:00;404066;9.536625;9.536625
08.05.1996 00:00:00;404066;9.68;9.68
09.05.1996 00:00:00;404066;9.887625;9.887625
10.05.1996 00:00:00;404066;9.855075;9.855075
13.05.1996 00:00:00;404066;9.79;9.79
14.05.1996 00:00:00;404066;9.66408125;9.66408125
15.05.1996 00:00:00;404066;9.8916875;9.8916875
16.05.1996 00:00:00;404066;9.8464875;9.8464875
17.05.1996 00:00:00;404066;9.77875;9.77875
20.05.1996 00:00:00;404066;9.95080625;9.95080625
21.05.1996 00:00:00;404066;10.1596625;10.1596625
22.05.1996 00:00:00;404066;10.2531;10.2531
23.05.1996 00:00:00;404066;10.350375;10.350375
24.05.1996 00:00:00;404066;10.2661;10.2661
28.05.1996 00:00:00;404066;10.1879875;10.1879875
29.05.1996 00:00:00;404066;10.05465;10.05465
30.05.1996 00:00:00;404066;9.8815875;9.8815875
31.05.1996 00:00:00;404066;9.83235;9.83235
03.06.1996 00:00:00;404066;9.850025;9.850025
04.06.1996 00:00:00;404066;9.99345;9.99345
05.06.1996 00:00:00;404066;10.07855;10.07855
06.06.1996 00:00:00;404066;9.83518125;9.83518125
07.06.1996 00:00:00;404066;9.962225;9.962225
10.06.1996 00:00:00;404066;9.9017875;9.9017875
11.06.1996 00:00:00;404066;9.915675;9.915675
12.06.1996 00:00:00;404066;9.85905;9.85905
13.06.1996 00:00:00;404066;9.6784875;9.6784875
14.06.1996 00:00:00;404066;9.5914375;9.5914375
17.06.1996 00:00:00;404066;9.41385;9.41385
18.06.1996 00:00:00;404066;9.24081875;9.24081875
19.06.1996 00:00:00;404066;9.43325;9.43325
20.06.1996 00:00:00;404066;9.491625;9.491625
21.06.1996 00:00:00;404066;9.4032;9.4032
24.06.1996 00:00:00;404066;9.3852;9.3852
25.06.1996 00:00:00;404066;9.63453125;9.63453125
26.06.1996 00:00:00;404066;10.335;10.335
27.06.1996 00:00:00;404066;10.5003;10.5003
28.06.1996 00:00:00;404066;10.83361875;10.83361875
01.07.1996 00:00:00;404066;11.2955;11.2955
02.07.1996 00:00:00;404066;11.2641375;11.2641375
03.07.1996 00:00:00;404066;11.232375;11.232375
05.07.1996 00:00:00;404066;11.3332;11.3332
08.07.1996 00:00:00;404066;11.3245;11.3245
09.07.1996 00:00:00;404066;11.694;11.694
10.07.1996 00:00:00;404066;11.80355;11.80355
11.07.1996 00:00:00;404066;11.1823125;11.1823125
12.07.1996 00:00:00;404066;11.1494375;11.1494375
15.07.1996 00:00:00;404066;11.06655;11.06655
16.07.1996 00:00:00;404066;10.0323;10.0323
17.07.1996 00:00:00;404066;10.15965;10.15965
18.07.1996 00:00:00;404066;10.228625;10.228625
19.07.1996 00:00:00;404066;10.178375;10.178375
22.07.1996 00:00:00;404066;10.0093125;10.0093125
23.07.1996 00:00:00;404066;10.28295;10.28295
24.07.1996 00:00:00;404066;10.092525;10.092525
25.07.1996 00:00:00;404066;9.6339;9.6339
26.07.1996 00:00:00;404066;9.901375;9.901375
29.07.1996 00:00:00;404066;9.841;9.841
30.07.1996 00:00:00;404066;9.5280875;9.5280875
31.07.1996 00:00:00;404066;9.39125;9.39125
01.08.1996 00:00:00;404066;9.47338125;9.47338125
02.08.1996 00:00:00;404066;9.77169375;9.77169375
05.08.1996 00:00:00;404066;9.99744375;9.99744375
06.08.1996 00:00:00;404066;10.09753125;10.09753125
07.08.1996 00:00:00;404066;10.39839375;10.39839375
08.08.1996 00:00:00;404066;10.386075;10.386075
09.08.1996 00:00:00;404066;10.15203125;10.15203125
12.08.1996 00:00:00;404066;10.00905;10.00905
13.08.1996 00:00:00;404066;9.989175;9.989175
14.08.1996 00:00:00;404066;10.112175;10.112175
15.08.1996 00:00:00;404066;10.2492;10.2492
16.08.1996 00:00:00;404066;10.2581875;10.2581875
19.08.1996 00:00:00;404066;10.3102125;10.3102125
20.08.1996 00:00:00;404066;10.2789;10.2789
21.08.1996 00:00:00;404066;10.0882125;10.0882125
22.08.1996 00:00:00;404066;10.15610625;10.15610625
23.08.1996 00:00:00;404066;10.01965;10.01965
26.08.1996 00:00:00;404066;10.07356875;10.07356875
27.08.1996 00:00:00;404066;9.8293;9.8293
28.08.1996 00:00:00;404066;9.765225;9.765225
29.08.1996 00:00:00;404066;9.78204375;9.78204375
30.08.1996 00:00:00;404066;9.79239375;9.79239375
03.09.1996 00:00:00;404066;9.95925;9.95925
04.09.1996 00:00:00;404066;9.79239375;9.79239375
05.09.1996 00:00:00;404066;9.7734125;9.7734125
06.09.1996 00:00:00;404066;9.868725;9.868725
09.09.1996 00:00:00;404066;9.9515;9.9515
10.09.1996 00:00:00;404066;10.0399;10.0399
11.09.1996 00:00:00;404066;10.1154375;10.1154375
12.09.1996 00:00:00;404066;9.7679625;9.7679625
13.09.1996 00:00:00;404066;9.48395;9.48395
16.09.1996 00:00:00;404066;9.367775;9.367775
17.09.1996 00:00:00;404066;9.0945;9.0945
18.09.1996 00:00:00;404066;9.2568;9.2568
19.09.1996 00:00:00;404066;9.33275625;9.33275625
20.09.1996 00:00:00;404066;9.34481875;9.34481875
23.09.1996 00:00:00;404066;9.326725;9.326725
24.09.1996 00:00:00;404066;9.1357875;9.1357875
25.09.1996 00:00:00;404066;9.2772;9.2772
26.09.1996 00:00:00;404066;9.548875;9.548875
27.09.1996 00:00:00;404066;9.40271875;9.40271875
30.09.1996 00:00:00;404066;9.706225;9.706225
01.10.1996 00:00:00;404066;9.8475;9.8475
02.10.1996 00:00:00;404066;9.979425;9.979425
03.10.1996 00:00:00;404066;9.880325;9.880325
04.10.1996 00:00:00;404066;9.8314125;9.8314125
07.10.1996 00:00:00;404066;10.0321875;10.0321875
08.10.1996 00:00:00;404066;9.9603;9.9603
09.10.1996 00:00:00;404066;9.875275;9.875275
10.10.1996 00:00:00;404066;9.384;9.384
11.10.1996 00:00:00;404066;9.2993125;9.2993125
14.10.1996 00:00:00;404066;9.13378125;9.13378125
15.10.1996 00:00:00;404066;9.45;9.45
16.10.1996 00:00:00;404066;9.57815625;9.57815625
17.10.1996 00:00:00;404066;9.8675;9.8675
18.10.1996 00:00:00;404066;10.04955;10.04955
21.10.1996 00:00:00;404066;9.81125;9.81125
22.10.1996 00:00:00;404066;9.699525;9.699525
23.10.1996 00:00:00;404066;9.3264;9.3264
24.10.1996 00:00:00;404066;9.4247625;9.4247625
25.10.1996 00:00:00;404066;9.6515;9.6515
28.10.1996 00:00:00;404066;9.4575;9.4575
29.10.1996 00:00:00;404066;9.4521;9.4521
30.10.1996 00:00:00;404066;9.8532;9.8532
31.10.1996 00:00:00;404066;9.9845625;9.9845625
01.11.1996 00:00:00;404066;9.7309125;9.7309125
04.11.1996 00:00:00;404066;9.5695875;9.5695875
05.11.1996 00:00:00;404066;9.67015625;9.67015625
06.11.1996 00:00:00;404066;9.5109;9.5109
07.11.1996 00:00:00;404066;9.2448;9.2448
08.11.1996 00:00:00;404066;9.47446875;9.47446875
11.11.1996 00:00:00;404066;9.56;9.56
12.11.1996 00:00:00;404066;9.63625;9.63625
13.11.1996 00:00:00;404066;9.663075;9.663075
14.11.1996 00:00:00;404066;9.75155;9.75155
15.11.1996 00:00:00;404066;9.6475;9.6475
18.11.1996 00:00:00;404066;9.605;9.605
19.11.1996 00:00:00;404066;9.86434375;9.86434375
20.11.1996 00:00:00;404066;10.39023125;10.39023125
21.11.1996 00:00:00;404066;10.145525;10.145525
22.11.1996 00:00:00;404066;10.7402375;10.7402375
25.11.1996 00:00:00;404066;10.94484375;10.94484375
26.11.1996 00:00:00;404066;10.726375;10.726375
27.11.1996 00:00:00;404066;10.4539;10.4539
29.11.1996 00:00:00;404066;10.47028125;10.47028125
02.12.1996 00:00:00;404066;10.3753125;10.3753125
03.12.1996 00:00:00;404066;10.7487;10.7487
04.12.1996 00:00:00;404066;10.4104;10.4104
05.12.1996 00:00:00;404066;10.511225;10.511225
06.12.1996 00:00:00;404066;10.21933125;10.21933125
09.12.1996 00:00:00;404066;10.18978125;10.18978125
10.12.1996 00:00:00;404066;10.3181;10.3181
11.12.1996 00:00:00;404066;9.9219875;9.9219875
12.12.1996 00:00:00;404066;9.85375;9.85375
13.12.1996 00:00:00;404066;9.90125;9.90125
16.12.1996 00:00:00;404066;10.0611875;10.0611875
17.12.1996 00:00:00;404066;10.2387375;10.2387375
18.12.1996 00:00:00;404066;10.225325;10.225325
19.12.1996 00:00:00;404066;10.2279;10.2279
20.12.1996 00:00:00;404066;10.225325;10.225325
23.12.1996 00:00:00;404066;10.28919375;10.28919375
24.12.1996 00:00:00;404066;10.29436875;10.29436875
26.12.1996 00:00:00;404066;10.28919375;10.28919375
27.12.1996 00:00:00;404066;10.5417;10.5417
30.12.1996 00:00:00;404066;10.4475;10.4475
31.12.1996 00:00:00;404066;9.9320875;9.9320875
02.01.1997 00:00:00;404066;9.7552125;9.7552125
03.01.1997 00:00:00;404066;10.01875;10.01875
06.01.1997 00:00:00;404066;10.107575;10.107575
07.01.1997 00:00:00;404066;10.2;10.2
08.01.1997 00:00:00;404066;10.22105;10.22105
09.01.1997 00:00:00;404066;10.384975;10.384975
10.01.1997 00:00:00;404066;10.744425;10.744425
13.01.1997 00:00:00;404066;10.776225;10.776225
14.01.1997 00:00:00;404066;10.6929375;10.6929375
15.01.1997 00:00:00;404066;10.72275625;10.72275625
16.01.1997 00:00:00;404066;10.81465;10.81465
17.01.1997 00:00:00;404066;10.76775;10.76775
20.01.1997 00:00:00;404066;10.3554625;10.3554625
21.01.1997 00:00:00;404066;10.1871;10.1871
22.01.1997 00:00:00;404066;10.1132;10.1132
23.01.1997 00:00:00;404066;9.9666875;9.9666875
24.01.1997 00:00:00;404066;9.84808125;9.84808125
27.01.1997 00:00:00;404066;9.904075;9.904075
28.01.1997 00:00:00;404066;9.9123;9.9123
29.01.1997 00:00:00;404066;9.66345;9.66345
30.01.1997 00:00:00;404066;9.803475;9.803475
31.01.1997 00:00:00;404066;9.6324;9.6324
03.02.1997 00:00:00;404066;9.602925;9.602925
04.02.1997 00:00:00;404066;9.2444;9.2444
05.02.1997 00:00:00;404066;9.516075;9.516075
06.02.1997 00:00:00;404066;9.50175;9.50175
07.02.1997 00:00:00;404066;9.0174375;9.0174375
10.02.1997 00:00:00;404066;8.52394375;8.52394375
11.02.1997 00:00:00;404066;8.8944875;8.8944875
12.02.1997 00:00:00;404066;9.1470625;9.1470625
13.02.1997 00:00:00;404066;9.1091;9.1091
14.02.1997 00:00:00;404066;9.0552;9.0552
18.02.1997 00:00:00;404066;9.121775;9.121775
19.02.1997 00:00:00;404066;9.1661375;9.1661375
20.02.1997 00:00:00;404066;8.89453125;8.89453125
21.02.1997 00:00:00;404066;9.06255;9.06255
24.02.1997 00:00:00;404066;8.8716625;8.8716625
25.02.1997 00:00:00;404066;8.7266125;8.7266125
26.02.1997 00:00:00;404066;8.70506875;8.70506875
27.02.1997 00:00:00;404066;8.68896875;8.68896875
28.02.1997 00:00:00;404066;8.7318;8.7318
03.03.1997 00:00:00;404066;8.73425;8.73425
04.03.1997 00:00:00;404066;9.09265;9.09265
05.03.1997 00:00:00;404066;9.1328125;9.1328125
06.03.1997 00:00:00;404066;9.38255625;9.38255625
07.03.1997 00:00:00;404066;9.282325;9.282325
10.03.1997 00:00:00;404066;9.3611;9.3611
11.03.1997 00:00:00;404066;9.14655;9.14655
12.03.1997 00:00:00;404066;8.95021875;8.95021875
13.03.1997 00:00:00;404066;9.09836875;9.09836875
14.03.1997 00:00:00;404066;9.0451375;9.0451375
17.03.1997 00:00:00;404066;9.01695625;9.01695625
18.03.1997 00:00:00;404066;8.97645;8.97645
19.03.1997 00:00:00;404066;9.0816375;9.0816375
20.03.1997 00:00:00;404066;9.18425;9.18425
21.03.1997 00:00:00;404066;9.12494375;9.12494375
24.03.1997 00:00:00;404066;9.0573;9.0573
25.03.1997 00:00:00;404066;8.974375;8.974375
26.03.1997 00:00:00;404066;9.13550625;9.13550625
27.03.1997 00:00:00;404066;8.93345625;8.93345625
31.03.1997 00:00:00;404066;8.8478;8.8478
01.04.1997 00:00:00;404066;8.97015;8.97015
02.04.1997 00:00:00;404066;8.39655625;8.39655625
03.04.1997 00:00:00;404066;8.37595;8.37595
04.04.1997 00:00:00;404066;8.2649875;8.2649875
07.04.1997 00:00:00;404066;8.14005625;8.14005625
08.04.1997 00:00:00;404066;8.044575;8.044575
09.04.1997 00:00:00;404066;8.33236875;8.33236875
10.04.1997 00:00:00;404066;7.97771875;7.97771875
11.04.1997 00:00:00;404066;7.690375;7.690375
14.04.1997 00:00:00;404066;7.99584375;7.99584375
15.04.1997 00:00:00;404066;8.0874875;8.0874875
16.04.1997 00:00:00;404066;8.2303875;8.2303875
17.04.1997 00:00:00;404066;8.140925;8.140925
18.04.1997 00:00:00;404066;8.04916875;8.04916875
21.04.1997 00:00:00;404066;8.08231875;8.08231875
22.04.1997 00:00:00;404066;8.3824875;8.3824875
23.04.1997 00:00:00;404066;8.25875625;8.25875625
24.04.1997 00:00:00;404066;8.2190625;8.2190625
25.04.1997 00:00:00;404066;8.155725;8.155725
28.04.1997 00:00:00;404066;7.9605;7.9605
29.04.1997 00:00:00;404066;8.379;8.379
30.04.1997 00:00:00;404066;8.24249375;8.24249375
01.05.1997 00:00:00;404066;8.2528125;8.2528125
02.05.1997 00:00:00;404066;8.502725;8.502725
05.05.1997 00:00:00;404066;8.69093125;8.69093125
06.05.1997 00:00:00;404066;8.52790625;8.52790625
07.05.1997 00:00:00;404066;8.85399375;8.85399375
08.05.1997 00:00:00;404066;9.053225;9.053225
09.05.1997 00:00:00;404066;8.90175;8.90175
12.05.1997 00:00:00;404066;9.30346875;9.30346875
13.05.1997 00:00:00;404066;9.05244375;9.05244375
14.05.1997 00:00:00;404066;9.11925;9.11925
15.05.1997 00:00:00;404066;8.9889;8.9889
16.05.1997 00:00:00;404066;8.91928125;8.91928125
19.05.1997 00:00:00;404066;9.0719;9.0719
20.05.1997 00:00:00;404066;9.0065375;9.0065375
21.05.1997 00:00:00;404066;8.96815;8.96815
22.05.1997 00:00:00;404066;9.203375;9.203375
23.05.1997 00:00:00;404066;9.1450125;9.1450125
27.05.1997 00:00:00;404066;8.9904375;8.9904375
28.05.1997 00:00:00;404066;9.3181;9.3181
29.05.1997 00:00:00;404066;9.2055;9.2055
30.05.1997 00:00:00;404066;9.33766875;9.33766875
02.06.1997 00:00:00;404066;9.2862;9.2862
03.06.1997 00:00:00;404066;9.22675;9.22675
04.06.1997 00:00:00;404066;9.13171875;9.13171875
05.06.1997 00:00:00;404066;9.1704625;9.1704625
06.06.1997 00:00:00;404066;8.993525;8.993525
09.06.1997 00:00:00;404066;8.48835;8.48835
10.06.1997 00:00:00;404066;8.3429;8.3429
11.06.1997 00:00:00;404066;8.22375;8.22375
12.06.1997 00:00:00;404066;8.32859375;8.32859375
13.06.1997 00:00:00;404066;8.44075;8.44075
16.06.1997 00:00:00;404066;8.40465;8.40465
17.06.1997 00:00:00;404066;8.637525;8.637525
18.06.1997 00:00:00;404066;8.36068125;8.36068125
19.06.1997 00:00:00;404066;8.323875;8.323875
20.06.1997 00:00:00;404066;8.3408625;8.3408625
23.06.1997 00:00:00;404066;8.08408125;8.08408125
24.06.1997 00:00:00;404066;7.9389;7.9389
25.06.1997 00:00:00;404066;7.9326;7.9326
26.06.1997 00:00:00;404066;8.00128125;8.00128125
27.06.1997 00:00:00;404066;8.16309375;8.16309375
30.06.1997 00:00:00;404066;8.07740625;8.07740625
01.07.1997 00:00:00;404066;8.32345667572021;8.32345667572021
02.07.1997 00:00:00;404066;8.31511630363464;8.31511630363464
03.07.1997 00:00:00;404066;8.170525;8.170525
07.07.1997 00:00:00;404066;8.1407693939209;8.1407693939209
08.07.1997 00:00:00;404066;8.12816963195801;8.12816963195801
09.07.1997 00:00:00;404066;8.1054;8.1054
10.07.1997 00:00:00;404066;8.0676;8.0676
11.07.1997 00:00:00;404066;8.29835431938171;8.29835431938171
14.07.1997 00:00:00;404066;8.54515;8.54515
15.07.1997 00:00:00;404066;8.8636625;8.8636625
16.07.1997 00:00:00;404066;8.7153;8.7153
17.07.1997 00:00:00;404066;9.1166625;9.1166625
18.07.1997 00:00:00;404066;9.01298290557861;9.01298290557861
21.07.1997 00:00:00;404066;8.9583;8.9583
22.07.1997 00:00:00;404066;9.0055;9.0055
23.07.1997 00:00:00;404066;8.85427449760437;8.85427449760437
24.07.1997 00:00:00;404066;9.09388077735901;9.09388077735901
25.07.1997 00:00:00;404066;9.3273375;9.3273375
28.07.1997 00:00:00;404066;9.35649996376037;9.35649996376037
29.07.1997 00:00:00;404066;9.25021847572326;9.25021847572326
30.07.1997 00:00:00;404066;9.499275;9.499275
31.07.1997 00:00:00;404066;9.58745625;9.58745625
01.08.1997 00:00:00;404066;9.7005375;9.7005375
04.08.1997 00:00:00;404066;9.93697547950749;9.93697547950749
05.08.1997 00:00:00;404066;10.9762820964814;10.9762820964814
06.08.1997 00:00:00;404066;11.137;11.137
07.08.1997 00:00:00;404066;11.472;11.472
08.08.1997 00:00:00;404066;10.85025;10.85025
11.08.1997 00:00:00;404066;10.86448125;10.86448125
12.08.1997 00:00:00;404066;10.5857035697937;10.5857035697937
13.08.1997 00:00:00;404066;10.3506684062958;10.3506684062958
14.08.1997 00:00:00;404066;10.708425;10.708425
15.08.1997 00:00:00;404066;10.3887461791993;10.3887461791993
18.08.1997 00:00:00;404066;10.3629375;10.3629375
19.08.1997 00:00:00;404066;10.6586375;10.6586375
20.08.1997 00:00:00;404066;10.90545;10.90545
21.08.1997 00:00:00;404066;10.591875;10.591875
22.08.1997 00:00:00;404066;10.47876875;10.47876875
25.08.1997 00:00:00;404066;10.581025;10.581025
26.08.1997 00:00:00;404066;10.5272111446381;10.5272111446381
27.08.1997 00:00:00;404066;10.62025;10.62025
28.08.1997 00:00:00;404066;10.650825;10.650825
29.08.1997 00:00:00;404066;11.1578125;11.1578125
02.09.1997 00:00:00;404066;11.3173776573182;11.3173776573182
03.09.1997 00:00:00;404066;11.5204898002625;11.5204898002625
04.09.1997 00:00:00;404066;11.364325;11.364325
05.09.1997 00:00:00;404066;11.0388;11.0388
08.09.1997 00:00:00;404066;10.8859208221436;10.8859208221436
09.09.1997 00:00:00;404066;11.0454741306305;11.0454741306305
10.09.1997 00:00:00;404066;11.0065081039429;11.0065081039429
11.09.1997 00:00:00;404066;10.4742;10.4742
12.09.1997 00:00:00;404066;10.5334125;10.5334125
15.09.1997 00:00:00;404066;10.3993125;10.3993125
16.09.1997 00:00:00;404066;10.5372948303223;10.5372948303223
17.09.1997 00:00:00;404066;10.3692375;10.3692375
18.09.1997 00:00:00;404066;10.4434889076233;10.4434889076233
19.09.1997 00:00:00;404066;10.2208574295044;10.2208574295044
22.09.1997 00:00:00;404066;10.4698423946381;10.4698423946381
23.09.1997 00:00:00;404066;10.439975;10.439975
24.09.1997 00:00:00;404066;10.534575;10.534575
25.09.1997 00:00:00;404066;10.38105;10.38105
26.09.1997 00:00:00;404066;10.3827821517945;10.3827821517945
29.09.1997 00:00:00;404066;10.2454625;10.2454625
30.09.1997 00:00:00;404066;10.0214;10.0214
01.10.1997 00:00:00;404066;10.0914875;10.0914875
02.10.1997 00:00:00;404066;10.1131855793;10.1131855793
03.10.1997 00:00:00;404066;10.1654125;10.1654125
06.10.1997 00:00:00;404066;10.40971875;10.40971875
07.10.1997 00:00:00;404066;10.3458819931031;10.3458819931031
08.10.1997 00:00:00;404066;10.26973125;10.26973125
09.10.1997 00:00:00;404066;10.130575;10.130575
10.10.1997 00:00:00;404066;10.058625;10.058625
13.10.1997 00:00:00;404066;10.01393125;10.01393125
14.10.1997 00:00:00;404066;9.916425;9.916425
15.10.1997 00:00:00;404066;9.834;9.834
16.10.1997 00:00:00;404066;9.80062243461613;9.80062243461613
17.10.1997 00:00:00;404066;9.7982875;9.7982875
20.10.1997 00:00:00;404066;10.1698418293;10.1698418293
21.10.1997 00:00:00;404066;10.35433125;10.35433125
22.10.1997 00:00:00;404066;10.42299375;10.42299375
23.10.1997 00:00:00;404066;10.0514375;10.0514375
24.10.1997 00:00:00;404066;10.3738125;10.3738125
27.10.1997 00:00:00;404066;9.53759777183537;9.53759777183537
28.10.1997 00:00:00;404066;9.17081271743779;9.17081271743779
29.10.1997 00:00:00;404066;9.35943125;9.35943125
30.10.1997 00:00:00;404066;9.00787183952336;9.00787183952336
31.10.1997 00:00:00;404066;9.28649997940068;9.28649997940068
03.11.1997 00:00:00;404066;9.44787521743778;9.44787521743778
04.11.1997 00:00:00;404066;9.29816875;9.29816875
05.11.1997 00:00:00;404066;9.31718125;9.31718125
06.11.1997 00:00:00;404066;9.123775;9.123775
07.11.1997 00:00:00;404066;8.87254332275395;8.87254332275395
10.11.1997 00:00:00;404066;9.07741513328556;9.07741513328556
11.11.1997 00:00:00;404066;8.83712154197697;8.83712154197697
12.11.1997 00:00:00;404066;8.72943119964599;8.72943119964599
13.11.1997 00:00:00;404066;8.5496280002594;8.5496280002594
14.11.1997 00:00:00;404066;8.67915625;8.67915625
17.11.1997 00:00:00;404066;8.9133625;8.9133625
18.11.1997 00:00:00;404066;8.6349312789917;8.6349312789917
19.11.1997 00:00:00;404066;8.641425;8.641425
20.11.1997 00:00:00;404066;8.90679090690617;8.90679090690617
21.11.1997 00:00:00;404066;8.911;8.911
24.11.1997 00:00:00;404066;8.80075655670166;8.80075655670166
25.11.1997 00:00:00;404066;8.52688125;8.52688125
26.11.1997 00:00:00;404066;8.49375;8.49375
28.11.1997 00:00:00;404066;8.60390414085388;8.60390414085388
01.12.1997 00:00:00;404066;8.4650625;8.4650625
02.12.1997 00:00:00;404066;8.59293562889099;8.59293562889099
03.12.1997 00:00:00;404066;8.39400735015869;8.39400735015869
04.12.1997 00:00:00;404066;8.5975;8.5975
05.12.1997 00:00:00;404066;8.73995142745971;8.73995142745971
08.12.1997 00:00:00;404066;8.83068597602844;8.83068597602844
09.12.1997 00:00:00;404066;8.74306111488342;8.74306111488342
10.12.1997 00:00:00;404066;8.7190875;8.7190875
11.12.1997 00:00:00;404066;8.505075;8.505075
12.12.1997 00:00:00;404066;8.60605;8.60605
15.12.1997 00:00:00;404066;8.64393559913635;8.64393559913635
16.12.1997 00:00:00;404066;8.80364833717346;8.80364833717346
17.12.1997 00:00:00;404066;8.91848242950439;8.91848242950439
18.12.1997 00:00:00;404066;8.78337010803222;8.78337010803222
19.12.1997 00:00:00;404066;8.89405;8.89405
22.12.1997 00:00:00;404066;9.16190625;9.16190625
23.12.1997 00:00:00;404066;9.09638246917729;9.09638246917729
24.12.1997 00:00:00;404066;9.23496875;9.23496875
26.12.1997 00:00:00;404066;9.1803375;9.1803375
29.12.1997 00:00:00;404066;9.33896094627385;9.33896094627385
30.12.1997 00:00:00;404066;9.32054375;9.32054375
31.12.1997 00:00:00;404066;9.73887996406559;9.73887996406559
02.01.1998 00:00:00;404066;9.5143125;9.5143125
05.01.1998 00:00:00;404066;9.359;9.359
06.01.1998 00:00:00;404066;9.18940625;9.18940625
07.01.1998 00:00:00;404066;9.23068995895385;9.23068995895385
08.01.1998 00:00:00;404066;9.292;9.292
09.01.1998 00:00:00;404066;8.86696800956726;8.86696800956726
12.01.1998 00:00:00;404066;8.98808365936279;8.98808365936279
13.01.1998 00:00:00;404066;9.1867125;9.1867125
14.01.1998 00:00:00;404066;9.23068995895385;9.23068995895385
15.01.1998 00:00:00;404066;9.365;9.365
16.01.1998 00:00:00;404066;9.487125;9.487125
20.01.1998 00:00:00;404066;9.79544980506901;9.79544980506901
21.01.1998 00:00:00;404066;9.8855;9.8855
22.01.1998 00:00:00;404066;9.37121763267521;9.37121763267521
23.01.1998 00:00:00;404066;9.07559514770508;9.07559514770508
26.01.1998 00:00:00;404066;9.10970625;9.10970625
27.01.1998 00:00:00;404066;9.159;9.159
28.01.1998 00:00:00;404066;9.27293334198002;9.27293334198002
29.01.1998 00:00:00;404066;9.442575;9.442575
30.01.1998 00:00:00;404066;9.355;9.355
02.02.1998 00:00:00;404066;9.066525;9.066525
03.02.1998 00:00:00;404066;9.12815536079406;9.12815536079406
04.02.1998 00:00:00;404066;9.3241125;9.3241125
05.02.1998 00:00:00;404066;9.36235;9.36235
06.02.1998 00:00:00;404066;9.7062;9.7062
09.02.1998 00:00:00;404066;9.6799398796082;9.6799398796082
10.02.1998 00:00:00;404066;9.63519279136662;9.63519279136662
11.02.1998 00:00:00;404066;9.55543983993534;9.55543983993534
12.02.1998 00:00:00;404066;9.50711773185734;9.50711773185734
13.02.1998 00:00:00;404066;9.57086178932194;9.57086178932194
17.02.1998 00:00:00;404066;9.31384945793152;9.31384945793152
18.02.1998 00:00:00;404066;9.48150625;9.48150625
19.02.1998 00:00:00;404066;9.382275;9.382275
20.02.1998 00:00:00;404066;9.4365;9.4365
23.02.1998 00:00:00;404066;9.13142042541504;9.13142042541504
24.02.1998 00:00:00;404066;9.317025;9.317025
25.02.1998 00:00:00;404066;9.410175;9.410175
26.02.1998 00:00:00;404066;9.80244276161198;9.80244276161198
27.02.1998 00:00:00;404066;9.92655;9.92655
02.03.1998 00:00:00;404066;10.1346875;10.1346875
03.03.1998 00:00:00;404066;10.2372375;10.2372375
04.03.1998 00:00:00;404066;10.219;10.219
05.03.1998 00:00:00;404066;10.1984807476044;10.1984807476044
06.03.1998 00:00:00;404066;10.0945308071137;10.0945308071137
09.03.1998 00:00:00;404066;9.7016625;9.7016625
10.03.1998 00:00:00;404066;9.98282145690922;9.98282145690922
11.03.1998 00:00:00;404066;10.1530495571137;10.1530495571137
12.03.1998 00:00:00;404066;10.3021306880951;10.3021306880951
13.03.1998 00:00:00;404066;10.38759375;10.38759375
16.03.1998 00:00:00;404066;9.891875;9.891875
17.03.1998 00:00:00;404066;9.8130649589539;9.8130649589539
18.03.1998 00:00:00;404066;10.1670375;10.1670375
19.03.1998 00:00:00;404066;10.3230901573182;10.3230901573182
20.03.1998 00:00:00;404066;10.4456433071137;10.4456433071137
23.03.1998 00:00:00;404066;11.093625;11.093625
24.03.1998 00:00:00;404066;10.69063125;10.69063125
25.03.1998 00:00:00;404066;10.7502;10.7502
26.03.1998 00:00:00;404066;10.70535;10.70535
27.03.1998 00:00:00;404066;10.6299375;10.6299375
30.03.1998 00:00:00;404066;10.7992875;10.7992875
31.03.1998 00:00:00;404066;10.8448968933106;10.8448968933106
01.04.1998 00:00:00;404066;11.1616032325745;11.1616032325745
02.04.1998 00:00:00;404066;11.06455625;11.06455625
03.04.1998 00:00:00;404066;11.05988125;11.05988125
06.04.1998 00:00:00;404066;10.8440341354371;10.8440341354371
07.04.1998 00:00:00;404066;11.062625;11.062625
08.04.1998 00:00:00;404066;10.6952803707123;10.6952803707123
09.04.1998 00:00:00;404066;11.2047493091584;11.2047493091584
13.04.1998 00:00:00;404066;10.8031024589539;10.8031024589539
14.04.1998 00:00:00;404066;10.775875;10.775875
15.04.1998 00:00:00;404066;10.99085625;10.99085625
16.04.1998 00:00:00;404066;10.6572270820618;10.6572270820618
17.04.1998 00:00:00;404066;10.86405;10.86405
20.04.1998 00:00:00;404066;10.820575;10.820575
21.04.1998 00:00:00;404066;10.728925;10.728925
22.04.1998 00:00:00;404066;10.595875;10.595875
23.04.1998 00:00:00;404066;10.3545;10.3545
24.04.1998 00:00:00;404066;10.301625;10.301625
27.04.1998 00:00:00;404066;10.2461296665192;10.2461296665192
28.04.1998 00:00:00;404066;10.4618579849244;10.4618579849244
29.04.1998 00:00:00;404066;10.6500643043518;10.6500643043518
30.04.1998 00:00:00;404066;10.73029375;10.73029375
01.05.1998 00:00:00;404066;10.5845625;10.5845625
04.05.1998 00:00:00;404066;10.52534375;10.52534375
05.05.1998 00:00:00;404066;10.4075;10.4075
06.05.1998 00:00:00;404066;10.071907270813;10.071907270813
07.05.1998 00:00:00;404066;10.0514375;10.0514375
08.05.1998 00:00:00;404066;10.195875;10.195875
11.05.1998 00:00:00;404066;10.1377294384003;10.1377294384003
12.05.1998 00:00:00;404066;10.0053887290955;10.0053887290955
13.05.1998 00:00:00;404066;9.86026696815495;9.86026696815495
14.05.1998 00:00:00;404066;9.49708125;9.49708125
15.05.1998 00:00:00;404066;9.58755;9.58755
18.05.1998 00:00:00;404066;9.64673125;9.64673125
19.05.1998 00:00:00;404066;9.49887026672368;9.49887026672368
20.05.1998 00:00:00;404066;9.5088;9.5088
21.05.1998 00:00:00;404066;9.28976641273503;9.28976641273503
22.05.1998 00:00:00;404066;9.29597269248966;9.29597269248966
26.05.1998 00:00:00;404066;9.051;9.051
27.05.1998 00:00:00;404066;8.97656084709167;8.97656084709167
28.05.1998 00:00:00;404066;9.099;9.099
29.05.1998 00:00:00;404066;9.26762337684636;9.26762337684636
01.06.1998 00:00:00;404066;9.0068075881958;9.0068075881958
02.06.1998 00:00:00;404066;9.06861698799133;9.06861698799133
03.06.1998 00:00:00;404066;8.9934375;8.9934375
04.06.1998 00:00:00;404066;8.95965;8.95965
05.06.1998 00:00:00;404066;9.0172875;9.0172875
08.06.1998 00:00:00;404066;8.83827634811401;8.83827634811401
09.06.1998 00:00:00;404066;8.7057;8.7057
10.06.1998 00:00:00;404066;8.5581875;8.5581875
11.06.1998 00:00:00;404066;8.51171766242981;8.51171766242981
12.06.1998 00:00:00;404066;8.76755;8.76755
15.06.1998 00:00:00;404066;8.4652625;8.4652625
16.06.1998 00:00:00;404066;8.3867875;8.3867875
17.06.1998 00:00:00;404066;8.53836406631469;8.53836406631469
18.06.1998 00:00:00;404066;8.4683893043518;8.4683893043518
19.06.1998 00:00:00;404066;8.3918625;8.3918625
22.06.1998 00:00:00;404066;8.8319;8.8319
23.06.1998 00:00:00;404066;9.18026754341125;9.18026754341125
24.06.1998 00:00:00;404066;9.29840818328862;9.29840818328862
25.06.1998 00:00:00;404066;9.32957680435185;9.32957680435185
26.06.1998 00:00:00;404066;9.3879;9.3879
29.06.1998 00:00:00;404066;9.272;9.272
30.06.1998 00:00:00;404066;9.341325;9.341325
01.07.1998 00:00:00;404066;9.35510625;9.35510625
02.07.1998 00:00:00;404066;9.39833679924016;9.39833679924016
06.07.1998 00:00:00;404066;9.23908346099853;9.23908346099853
07.07.1998 00:00:00;404066;9.04215;9.04215
08.07.1998 00:00:00;404066;9.15178047981262;9.15178047981262
09.07.1998 00:00:00;404066;9.12015;9.12015
10.07.1998 00:00:00;404066;8.7749875;8.7749875
13.07.1998 00:00:00;404066;8.24950186386108;8.24950186386108
14.07.1998 00:00:00;404066;8.38993950271606;8.38993950271606
15.07.1998 00:00:00;404066;8.26026442337036;8.26026442337036
16.07.1998 00:00:00;404066;8.20824538574218;8.20824538574218
17.07.1998 00:00:00;404066;8.1831327468872;8.1831327468872
20.07.1998 00:00:00;404066;7.94980146713256;7.94980146713256
21.07.1998 00:00:00;404066;7.80528599586487;7.80528599586487
22.07.1998 00:00:00;404066;7.6572625;7.6572625
23.07.1998 00:00:00;404066;7.71609375;7.71609375
24.07.1998 00:00:00;404066;7.5301857181549;7.5301857181549
27.07.1998 00:00:00;404066;7.49472334709167;7.49472334709167
28.07.1998 00:00:00;404066;7.26591674003601;7.26591674003601
29.07.1998 00:00:00;404066;7.30381875;7.30381875
30.07.1998 00:00:00;404066;7.36050134811401;7.36050134811401
31.07.1998 00:00:00;404066;7.22233125;7.22233125
03.08.1998 00:00:00;404066;7.2952;7.2952
04.08.1998 00:00:00;404066;7.08203125;7.08203125
05.08.1998 00:00:00;404066;6.96103125;6.96103125
06.08.1998 00:00:00;404066;6.95488125;6.95488125
07.08.1998 00:00:00;404066;7.08331745181084;7.08331745181084
10.08.1998 00:00:00;404066;6.8205;6.8205
11.08.1998 00:00:00;404066;6.68579558181763;6.68579558181763
12.08.1998 00:00:00;404066;6.795;6.795
13.08.1998 00:00:00;404066;6.67704375;6.67704375
14.08.1998 00:00:00;404066;6.9165;6.9165
17.08.1998 00:00:00;404066;6.7614;6.7614
18.08.1998 00:00:00;404066;6.95523125;6.95523125
19.08.1998 00:00:00;404066;7.18046875;7.18046875
20.08.1998 00:00:00;404066;7.28900625;7.28900625
21.08.1998 00:00:00;404066;7.1765625;7.1765625
24.08.1998 00:00:00;404066;7.02924909234047;7.02924909234047
25.08.1998 00:00:00;404066;6.8985;6.8985
26.08.1998 00:00:00;404066;6.69465;6.69465
27.08.1998 00:00:00;404066;6.47301484251022;6.47301484251022
28.08.1998 00:00:00;404066;6.0637170612812;6.0637170612812
31.08.1998 00:00:00;404066;5.8487;5.8487
01.09.1998 00:00:00;404066;6.037875;6.037875
02.09.1998 00:00:00;404066;5.939975;5.939975
03.09.1998 00:00:00;404066;5.8651125;5.8651125
04.09.1998 00:00:00;404066;6.1971;6.1971
08.09.1998 00:00:00;404066;6.26382545995712;6.26382545995712
09.09.1998 00:00:00;404066;6.30255346980095;6.30255346980095
10.09.1998 00:00:00;404066;6.18484375;6.18484375
11.09.1998 00:00:00;404066;6.64891875;6.64891875
14.09.1998 00:00:00;404066;6.81390911898613;6.81390911898613
15.09.1998 00:00:00;404066;6.99385222663879;6.99385222663879
16.09.1998 00:00:00;404066;7.146975;7.146975
17.09.1998 00:00:00;404066;7.0903584072113;7.0903584072113
18.09.1998 00:00:00;404066;7.115625;7.115625
21.09.1998 00:00:00;404066;7.204175;7.204175
22.09.1998 00:00:00;404066;7.07392080802917;7.07392080802917
23.09.1998 00:00:00;404066;7.79581780700683;7.79581780700683
24.09.1998 00:00:00;404066;7.480375;7.480375
25.09.1998 00:00:00;404066;8.0446875;8.0446875
28.09.1998 00:00:00;404066;7.67639556999206;7.67639556999206
29.09.1998 00:00:00;404066;7.67908620986938;7.67908620986938
30.09.1998 00:00:00;404066;7.473375;7.473375
01.10.1998 00:00:00;404066;6.98858872489929;6.98858872489929
02.10.1998 00:00:00;404066;7.05961039657592;7.05961039657592
05.10.1998 00:00:00;404066;6.8739;6.8739
06.10.1998 00:00:00;404066;6.84626005935669;6.84626005935669
07.10.1998 00:00:00;404066;6.62180651283264;6.62180651283264
08.10.1998 00:00:00;404066;6.39065;6.39065
09.10.1998 00:00:00;404066;6.6738700568676;6.6738700568676
12.10.1998 00:00:00;404066;6.68161418738365;6.68161418738365
13.10.1998 00:00:00;404066;6.8857102973938;6.8857102973938
14.10.1998 00:00:00;404066;7.10701661682128;7.10701661682128
15.10.1998 00:00:00;404066;6.94621315956116;6.94621315956116
16.10.1998 00:00:00;404066;6.9643125;6.9643125
19.10.1998 00:00:00;404066;6.81609375;6.81609375
20.10.1998 00:00:00;404066;6.92835;6.92835
21.10.1998 00:00:00;404066;7.0823074054718;7.0823074054718
22.10.1998 00:00:00;404066;7.31332909698486;7.31332909698486
23.10.1998 00:00:00;404066;7.30286653747558;7.30286653747558
26.10.1998 00:00:00;404066;7.413;7.413
27.10.1998 00:00:00;404066;7.40138897285461;7.40138897285461
28.10.1998 00:00:00;404066;7.27207321395874;7.27207321395874
29.10.1998 00:00:00;404066;7.24130625;7.24130625
30.10.1998 00:00:00;404066;7.06719825363159;7.06719825363159
02.11.1998 00:00:00;404066;7.3726169342041;7.3726169342041
03.11.1998 00:00:00;404066;7.39877333297729;7.39877333297729
04.11.1998 00:00:00;404066;7.43713605117798;7.43713605117798
05.11.1998 00:00:00;404066;7.47740625;7.47740625
06.11.1998 00:00:00;404066;7.75840625;7.75840625
09.11.1998 00:00:00;404066;7.80123658676147;7.80123658676147
10.11.1998 00:00:00;404066;7.4903625;7.4903625
11.11.1998 00:00:00;404066;7.4011125;7.4011125
12.11.1998 00:00:00;404066;7.67812087745666;7.67812087745666
13.11.1998 00:00:00;404066;7.6934;7.6934
16.11.1998 00:00:00;404066;7.5801375;7.5801375
17.11.1998 00:00:00;404066;7.41565;7.41565
18.11.1998 00:00:00;404066;7.42955;7.42955
19.11.1998 00:00:00;404066;7.2613125;7.2613125
20.11.1998 00:00:00;404066;7.29928125;7.29928125
23.11.1998 00:00:00;404066;7.20969942398071;7.20969942398071
24.11.1998 00:00:00;404066;7.093125;7.093125
25.11.1998 00:00:00;404066;7.0728125;7.0728125
27.11.1998 00:00:00;404066;7.14573407173156;7.14573407173156
30.11.1998 00:00:00;404066;6.50475;6.50475
01.12.1998 00:00:00;404066;6.1529867983818;6.1529867983818
02.12.1998 00:00:00;404066;6.00191773796082;6.00191773796082
03.12.1998 00:00:00;404066;5.76855;5.76855
04.12.1998 00:00:00;404066;6.07867727818489;6.07867727818489
07.12.1998 00:00:00;404066;6.32185;6.32185
08.12.1998 00:00:00;404066;6.00683964800834;6.00683964800834
09.12.1998 00:00:00;404066;6.0769125;6.0769125
10.12.1998 00:00:00;404066;5.9206;5.9206
11.12.1998 00:00:00;404066;5.74498125;5.74498125
14.12.1998 00:00:00;404066;5.42101875;5.42101875
15.12.1998 00:00:00;404066;6.27313615751266;6.27313615751266
16.12.1998 00:00:00;404066;7.0059;7.0059
17.12.1998 00:00:00;404066;6.96510625;6.96510625
18.12.1998 00:00:00;404066;7.13190457305908;7.13190457305908
21.12.1998 00:00:00;404066;7.019925;7.019925
22.12.1998 00:00:00;404066;7.0805111503601;7.0805111503601
23.12.1998 00:00:00;404066;7.07637050056457;7.07637050056457
24.12.1998 00:00:00;404066;7.23853125;7.23853125
28.12.1998 00:00:00;404066;7.1958;7.1958
29.12.1998 00:00:00;404066;7.32693125;7.32693125
30.12.1998 00:00:00;404066;7.312375;7.312375
31.12.1998 00:00:00;404066;7.391625;7.391625
04.01.1999 00:00:00;404066;7.413;7.413
05.01.1999 00:00:00;404066;7.417375;7.417375
06.01.1999 00:00:00;404066;7.5872766216278;7.5872766216278
07.01.1999 00:00:00;404066;7.34063125;7.34063125
08.01.1999 00:00:00;404066;7.7274;7.7274
11.01.1999 00:00:00;404066;7.45545;7.45545
12.01.1999 00:00:00;404066;7.5003;7.5003
13.01.1999 00:00:00;404066;7.29937993011474;7.29937993011474
14.01.1999 00:00:00;404066;7.2662300491333;7.2662300491333
15.01.1999 00:00:00;404066;7.15564252929687;7.15564252929687
19.01.1999 00:00:00;404066;7.541625;7.541625
20.01.1999 00:00:00;404066;7.5887991065979;7.5887991065979
21.01.1999 00:00:00;404066;7.64015846672058;7.64015846672058
22.01.1999 00:00:00;404066;7.7562;7.7562
25.01.1999 00:00:00;404066;7.63219904708862;7.63219904708862
26.01.1999 00:00:00;404066;7.4545875;7.4545875
27.01.1999 00:00:00;404066;7.27285;7.27285
28.01.1999 00:00:00;404066;7.3390125;7.3390125
29.01.1999 00:00:00;404066;7.5753375;7.5753375
01.02.1999 00:00:00;404066;7.381725;7.381725
02.02.1999 00:00:00;404066;6.956775;6.956775
03.02.1999 00:00:00;404066;7.25062499923706;7.25062499923706
04.02.1999 00:00:00;404066;7.313625;7.313625
05.02.1999 00:00:00;404066;7.4898063583374;7.4898063583374
08.02.1999 00:00:00;404066;7.5599;7.5599
09.02.1999 00:00:00;404066;7.53910944862366;7.53910944862366
10.02.1999 00:00:00;404066;7.398475;7.398475
11.02.1999 00:00:00;404066;7.34741875;7.34741875
12.02.1999 00:00:00;404066;7.56075;7.56075
16.02.1999 00:00:00;404066;7.376325;7.376325
17.02.1999 00:00:00;404066;7.31637539596557;7.31637539596557
18.02.1999 00:00:00;404066;7.28441875;7.28441875
19.02.1999 00:00:00;404066;7.33026875;7.33026875
22.02.1999 00:00:00;404066;7.46349190864563;7.46349190864563
23.02.1999 00:00:00;404066;7.3929375;7.3929375
24.02.1999 00:00:00;404066;7.42386388778686;7.42386388778686
25.02.1999 00:00:00;404066;7.56198556938171;7.56198556938171
26.02.1999 00:00:00;404066;7.4943;7.4943
01.03.1999 00:00:00;404066;7.284;7.284
02.03.1999 00:00:00;404066;7.43577368431091;7.43577368431091
03.03.1999 00:00:00;404066;7.3328;7.3328
04.03.1999 00:00:00;404066;7.62956131324768;7.62956131324768
05.03.1999 00:00:00;404066;7.7318;7.7318
08.03.1999 00:00:00;404066;7.83514554443359;7.83514554443359
09.03.1999 00:00:00;404066;7.49971747398376;7.49971747398376
10.03.1999 00:00:00;404066;7.9351625;7.9351625
11.03.1999 00:00:00;404066;7.97251875;7.97251875
12.03.1999 00:00:00;404066;7.8910125;7.8910125
15.03.1999 00:00:00;404066;7.82698125;7.82698125
16.03.1999 00:00:00;404066;7.9907625;7.9907625
17.03.1999 00:00:00;404066;8.16788578758239;8.16788578758239
18.03.1999 00:00:00;404066;7.86251691856384;7.86251691856384
19.03.1999 00:00:00;404066;8.03752351570129;8.03752351570129
22.03.1999 00:00:00;404066;7.929825;7.929825
23.03.1999 00:00:00;404066;7.88910802459716;7.88910802459716
24.03.1999 00:00:00;404066;7.75403290557861;7.75403290557861
25.03.1999 00:00:00;404066;7.57845;7.57845
26.03.1999 00:00:00;404066;7.77078334197998;7.77078334197998
29.03.1999 00:00:00;404066;8.05728365936279;8.05728365936279
30.03.1999 00:00:00;404066;7.71982747879028;7.71982747879028
31.03.1999 00:00:00;404066;7.743925;7.743925
01.04.1999 00:00:00;404066;7.7778625;7.7778625
05.04.1999 00:00:00;404066;7.81785861968994;7.81785861968994
06.04.1999 00:00:00;404066;7.74808125;7.74808125
07.04.1999 00:00:00;404066;7.58735625;7.58735625
08.04.1999 00:00:00;404066;7.518875;7.518875
09.04.1999 00:00:00;404066;7.59554375;7.59554375
12.04.1999 00:00:00;404066;7.80823322296142;7.80823322296142
13.04.1999 00:00:00;404066;8.0498375;8.0498375
14.04.1999 00:00:00;404066;7.89827716140747;7.89827716140747
15.04.1999 00:00:00;404066;8.25703035087585;8.25703035087585
16.04.1999 00:00:00;404066;8.86942457695007;8.86942457695007
19.04.1999 00:00:00;404066;8.9281;8.9281
20.04.1999 00:00:00;404066;8.5674625;8.5674625
21.04.1999 00:00:00;404066;8.8378125;8.8378125
22.04.1999 00:00:00;404066;8.7816875;8.7816875
23.04.1999 00:00:00;404066;8.5169375;8.5169375
26.04.1999 00:00:00;404066;8.246;8.246
27.04.1999 00:00:00;404066;8.67028101539612;8.67028101539612
28.04.1999 00:00:00;404066;8.9053;8.9053
29.04.1999 00:00:00;404066;9.07445;9.07445
30.04.1999 00:00:00;404066;8.968;8.968
03.05.1999 00:00:00;404066;8.9756;8.9756
04.05.1999 00:00:00;404066;9.0985125;9.0985125
05.05.1999 00:00:00;404066;8.82310901641845;8.82310901641845
06.05.1999 00:00:00;404066;8.50670625;8.50670625
07.05.1999 00:00:00;404066;8.690625;8.690625
10.05.1999 00:00:00;404066;8.99387743911743;8.99387743911743
11.05.1999 00:00:00;404066;9.01034375;9.01034375
12.05.1999 00:00:00;404066;9.08590625;9.08590625
13.05.1999 00:00:00;404066;9.19148722572326;9.19148722572326
14.05.1999 00:00:00;404066;8.99514649658203;8.99514649658203
17.05.1999 00:00:00;404066;8.9658;8.9658
18.05.1999 00:00:00;404066;8.859955777359;8.859955777359
19.05.1999 00:00:00;404066;9.1043125;9.1043125
20.05.1999 00:00:00;404066;8.95656222572326;8.95656222572326
21.05.1999 00:00:00;404066;9.11844370384216;9.11844370384216
24.05.1999 00:00:00;404066;8.865;8.865
25.05.1999 00:00:00;404066;8.79718731498718;8.79718731498718
26.05.1999 00:00:00;404066;8.97168761253356;8.97168761253356
27.05.1999 00:00:00;404066;9.0298;9.0298
28.05.1999 00:00:00;404066;9.11478179893493;9.11478179893493
01.06.1999 00:00:00;404066;9.01876004791259;9.01876004791259
02.06.1999 00:00:00;404066;9.37766972541809;9.37766972541809
03.06.1999 00:00:00;404066;9.407775;9.407775
04.06.1999 00:00:00;404066;9.73236686325078;9.73236686325078
07.06.1999 00:00:00;404066;9.959925;9.959925
08.06.1999 00:00:00;404066;10.0793602462769;10.0793602462769
09.06.1999 00:00:00;404066;9.95050366897588;9.95050366897588
10.06.1999 00:00:00;404066;9.93489421958928;9.93489421958928
11.06.1999 00:00:00;404066;9.97362537040715;9.97362537040715
14.06.1999 00:00:00;404066;9.98764375;9.98764375
15.06.1999 00:00:00;404066;10.0678445667267;10.0678445667267
16.06.1999 00:00:00;404066;9.96496875;9.96496875
17.06.1999 00:00:00;404066;10.34443125;10.34443125
18.06.1999 00:00:00;404066;10.3238230438233;10.3238230438233
21.06.1999 00:00:00;404066;10.20020625;10.20020625
22.06.1999 00:00:00;404066;10.1953511341095;10.1953511341095
23.06.1999 00:00:00;404066;10.061675;10.061675
24.06.1999 00:00:00;404066;9.88157920455937;9.88157920455937
25.06.1999 00:00:00;404066;9.75045625;9.75045625
28.06.1999 00:00:00;404066;9.621;9.621
29.06.1999 00:00:00;404066;9.75464792480473;9.75464792480473
30.06.1999 00:00:00;404066;9.8060625;9.8060625
01.07.1999 00:00:00;404066;9.8252042243958;9.8252042243958
02.07.1999 00:00:00;404066;10.077375;10.077375
06.07.1999 00:00:00;404066;9.94200166969304;9.94200166969304
07.07.1999 00:00:00;404066;9.95828125;9.95828125
08.07.1999 00:00:00;404066;10.0307736785889;10.0307736785889
09.07.1999 00:00:00;404066;9.806;9.806
12.07.1999 00:00:00;404066;9.77157391662597;9.77157391662597
13.07.1999 00:00:00;404066;9.68531441764831;9.68531441764831
14.07.1999 00:00:00;404066;9.67842375793457;9.67842375793457
15.07.1999 00:00:00;404066;9.60349375;9.60349375
16.07.1999 00:00:00;404066;9.64889235916137;9.64889235916137
19.07.1999 00:00:00;404066;9.7337875;9.7337875
20.07.1999 00:00:00;404066;9.84990092582707;9.84990092582707
21.07.1999 00:00:00;404066;9.559;9.559
22.07.1999 00:00:00;404066;9.64305;9.64305
23.07.1999 00:00:00;404066;10.17770625;10.17770625
26.07.1999 00:00:00;404066;9.56708125;9.56708125
27.07.1999 00:00:00;404066;9.37665289535522;9.37665289535522
28.07.1999 00:00:00;404066;9.4768625;9.4768625
29.07.1999 00:00:00;404066;10.0912964172364;10.0912964172364
30.07.1999 00:00:00;404066;9.99388125;9.99388125
02.08.1999 00:00:00;404066;10.1378;10.1378
03.08.1999 00:00:00;404066;9.91290625;9.91290625
04.08.1999 00:00:00;404066;10.2168;10.2168
05.08.1999 00:00:00;404066;10.8065553508759;10.8065553508759
06.08.1999 00:00:00;404066;11.6072055393219;11.6072055393219
09.08.1999 00:00:00;404066;11.5731;11.5731
10.08.1999 00:00:00;404066;10.42115625;10.42115625
11.08.1999 00:00:00;404066;10.8541151771546;10.8541151771546
12.08.1999 00:00:00;404066;11.04735;11.04735
13.08.1999 00:00:00;404066;10.9875464965821;10.9875464965821
16.08.1999 00:00:00;404066;10.9665750331879;10.9665750331879
17.08.1999 00:00:00;404066;11.022225271225;11.022225271225
18.08.1999 00:00:00;404066;11.0083127117157;11.0083127117157
19.08.1999 00:00:00;404066;11.2195125;11.2195125
20.08.1999 00:00:00;404066;11.1059308765412;11.1059308765412
23.08.1999 00:00:00;404066;11.1108375;11.1108375
24.08.1999 00:00:00;404066;11.2146190807343;11.2146190807343
25.08.1999 00:00:00;404066;11.278238098526;11.278238098526
26.08.1999 00:00:00;404066;11.1033818683625;11.1033818683625
27.08.1999 00:00:00;404066;11.0894693088532;11.0894693088532
30.08.1999 00:00:00;404066;11.1504161888123;11.1504161888123
31.08.1999 00:00:00;404066;11.32510625;11.32510625
01.09.1999 00:00:00;404066;11.3419061244965;11.3419061244965
02.09.1999 00:00:00;404066;10.96170625;10.96170625
03.09.1999 00:00:00;404066;10.9699682971955;10.9699682971955
07.09.1999 00:00:00;404066;11.3308625728608;11.3308625728608
08.09.1999 00:00:00;404066;11.3208;11.3208
09.09.1999 00:00:00;404066;11.920525;11.920525
10.09.1999 00:00:00;404066;11.76615;11.76615
13.09.1999 00:00:00;404066;11.7935853652955;11.7935853652955
14.09.1999 00:00:00;404066;11.3689541053772;11.3689541053772
15.09.1999 00:00:00;404066;11.0777135250092;11.0777135250092
16.09.1999 00:00:00;404066;11.180925;11.180925
17.09.1999 00:00:00;404066;11.2180227264405;11.2180227264405
20.09.1999 00:00:00;404066;11.5536569972992;11.5536569972992
21.09.1999 00:00:00;404066;10.98;10.98
22.09.1999 00:00:00;404066;10.88735625;10.88735625
23.09.1999 00:00:00;404066;10.6843881183625;10.6843881183625
24.09.1999 00:00:00;404066;9.99560984954838;9.99560984954838
27.09.1999 00:00:00;404066;10.4128125;10.4128125
28.09.1999 00:00:00;404066;9.72193125;9.72193125
29.09.1999 00:00:00;404066;9.98261888237004;9.98261888237004
30.09.1999 00:00:00;404066;9.9758125;9.9758125
01.10.1999 00:00:00;404066;9.908875;9.908875
04.10.1999 00:00:00;404066;9.973575;9.973575
05.10.1999 00:00:00;404066;9.79356201744084;9.79356201744084
06.10.1999 00:00:00;404066;9.6726125;9.6726125
07.10.1999 00:00:00;404066;10.0070712982178;10.0070712982178
08.10.1999 00:00:00;404066;9.58114649658207;9.58114649658207
11.10.1999 00:00:00;404066;9.87735;9.87735
12.10.1999 00:00:00;404066;10.1974875;10.1974875
13.10.1999 00:00:00;404066;9.72132730026249;9.72132730026249
14.10.1999 00:00:00;404066;9.79883125;9.79883125
15.10.1999 00:00:00;404066;9.206;9.206
18.10.1999 00:00:00;404066;9.261525;9.261525
19.10.1999 00:00:00;404066;9.763975;9.763975
20.10.1999 00:00:00;404066;10.2906085006714;10.2906085006714
21.10.1999 00:00:00;404066;9.9158625;9.9158625
22.10.1999 00:00:00;404066;10.3519303905487;10.3519303905487
25.10.1999 00:00:00;404066;10.0988433269501;10.0988433269501
26.10.1999 00:00:00;404066;9.93403125;9.93403125
27.10.1999 00:00:00;404066;9.99106875;9.99106875
28.10.1999 00:00:00;404066;9.77957217102055;9.77957217102055
29.10.1999 00:00:00;404066;9.90159406089787;9.90159406089787
01.11.1999 00:00:00;404066;9.95715;9.95715
02.11.1999 00:00:00;404066;9.12370341110229;9.12370341110229
03.11.1999 00:00:00;404066;9.377203490448;9.377203490448
04.11.1999 00:00:00;404066;9.03323480987548;9.03323480987548
05.11.1999 00:00:00;404066;8.81293835639953;8.81293835639953
08.11.1999 00:00:00;404066;9.0103125;9.0103125
09.11.1999 00:00:00;404066;9.3135625;9.3135625
10.11.1999 00:00:00;404066;9.489875;9.489875
11.11.1999 00:00:00;404066;9.303875;9.303875
12.11.1999 00:00:00;404066;9.47200625;9.47200625
15.11.1999 00:00:00;404066;9.75760625;9.75760625
16.11.1999 00:00:00;404066;9.40391048431396;9.40391048431396
17.11.1999 00:00:00;404066;10.03148125;10.03148125
18.11.1999 00:00:00;404066;9.7983375;9.7983375
19.11.1999 00:00:00;404066;9.52205;9.52205
22.11.1999 00:00:00;404066;9.4243199634552;9.4243199634552
23.11.1999 00:00:00;404066;9.3333625;9.3333625
24.11.1999 00:00:00;404066;9.651825;9.651825
26.11.1999 00:00:00;404066;9.7407;9.7407
29.11.1999 00:00:00;404066;9.2728125;9.2728125
30.11.1999 00:00:00;404066;9.1723;9.1723
01.12.1999 00:00:00;404066;9.25783663482666;9.25783663482666
02.12.1999 00:00:00;404066;8.88476875;8.88476875
03.12.1999 00:00:00;404066;8.6753375;8.6753375
06.12.1999 00:00:00;404066;8.128725;8.128725
07.12.1999 00:00:00;404066;7.396125;7.396125
08.12.1999 00:00:00;404066;7.6234375;7.6234375
09.12.1999 00:00:00;404066;7.74105839648247;7.74105839648247
10.12.1999 00:00:00;404066;7.69765625;7.69765625
13.12.1999 00:00:00;404066;7.9016;7.9016
14.12.1999 00:00:00;404066;7.889875;7.889875
15.12.1999 00:00:00;404066;8.03428125;8.03428125
16.12.1999 00:00:00;404066;8.34854263687134;8.34854263687134
17.12.1999 00:00:00;404066;8.41247041969299;8.41247041969299
20.12.1999 00:00:00;404066;8.46219606437683;8.46219606437683
21.12.1999 00:00:00;404066;8.4201;8.4201
22.12.1999 00:00:00;404066;8.33988982429504;8.33988982429504
23.12.1999 00:00:00;404066;8.45366476478576;8.45366476478576
27.12.1999 00:00:00;404066;8.23866771621704;8.23866771621704
28.12.1999 00:00:00;404066;8.3929;8.3929
29.12.1999 00:00:00;404066;8.59830238380432;8.59830238380432
30.12.1999 00:00:00;404066;8.52739375;8.52739375
31.12.1999 00:00:00;404066;8.74529626274109;8.74529626274109
03.01.2000 00:00:00;404066;7.636075;7.636075
04.01.2000 00:00:00;404066;7.51905;7.51905
05.01.2000 00:00:00;404066;7.2948172457695;7.2948172457695
06.01.2000 00:00:00;404066;7.90100741386413;7.90100741386413
07.01.2000 00:00:00;404066;7.8008012928009;7.8008012928009
10.01.2000 00:00:00;404066;7.92675;7.92675
11.01.2000 00:00:00;404066;7.9336875;7.9336875
12.01.2000 00:00:00;404066;7.9631625;7.9631625
13.01.2000 00:00:00;404066;8.12602642173767;8.12602642173767
14.01.2000 00:00:00;404066;8.2344958164215;8.2344958164215
18.01.2000 00:00:00;404066;8.42977712593078;8.42977712593078
19.01.2000 00:00:00;404066;8.4666;8.4666
20.01.2000 00:00:00;404066;8.2652875;8.2652875
21.01.2000 00:00:00;404066;8.055125;8.055125
24.01.2000 00:00:00;404066;7.90495625;7.90495625
25.01.2000 00:00:00;404066;7.7796875;7.7796875
26.01.2000 00:00:00;404066;7.90155628786087;7.90155628786087
27.01.2000 00:00:00;404066;7.80525062866211;7.80525062866211
28.01.2000 00:00:00;404066;7.8087625;7.8087625
31.01.2000 00:00:00;404066;8.13514375;8.13514375
01.02.2000 00:00:00;404066;8.28744375;8.28744375
02.02.2000 00:00:00;404066;8.44965;8.44965
03.02.2000 00:00:00;404066;8.26809375;8.26809375
04.02.2000 00:00:00;404066;8.0438169696331;8.0438169696331
07.02.2000 00:00:00;404066;8.02185432944298;8.02185432944298
08.02.2000 00:00:00;404066;7.857725;7.857725
09.02.2000 00:00:00;404066;7.59757550849914;7.59757550849914
10.02.2000 00:00:00;404066;8.04783125;8.04783125
11.02.2000 00:00:00;404066;7.93984375;7.93984375
14.02.2000 00:00:00;404066;8.0506125;8.0506125
15.02.2000 00:00:00;404066;8.2623125;8.2623125
16.02.2000 00:00:00;404066;8.10586342906952;8.10586342906952
17.02.2000 00:00:00;404066;8.21196906509399;8.21196906509399
18.02.2000 00:00:00;404066;7.96302582893372;7.96302582893372
22.02.2000 00:00:00;404066;7.7004;7.7004
23.02.2000 00:00:00;404066;7.358775;7.358775
24.02.2000 00:00:00;404066;7.0469;7.0469
25.02.2000 00:00:00;404066;7.10053125;7.10053125
28.02.2000 00:00:00;404066;7.32931423015594;7.32931423015594
29.02.2000 00:00:00;404066;7.9048375;7.9048375
01.03.2000 00:00:00;404066;8.05859375;8.05859375
02.03.2000 00:00:00;404066;9.2158;9.2158
03.03.2000 00:00:00;404066;8.9713888961792;8.9713888961792
06.03.2000 00:00:00;404066;9.003725;9.003725
07.03.2000 00:00:00;404066;9.6839138961792;9.6839138961792
08.03.2000 00:00:00;404066;9.86501875;9.86501875
09.03.2000 00:00:00;404066;9.6825;9.6825
10.03.2000 00:00:00;404066;9.61728263626098;9.61728263626098
13.03.2000 00:00:00;404066;9.4525875;9.4525875
14.03.2000 00:00:00;404066;9.59225;9.59225
15.03.2000 00:00:00;404066;9.44563865814209;9.44563865814209
16.03.2000 00:00:00;404066;9.6525;9.6525
17.03.2000 00:00:00;404066;9.5312;9.5312
20.03.2000 00:00:00;404066;9.46036875;9.46036875
21.03.2000 00:00:00;404066;9.63252299842834;9.63252299842834
22.03.2000 00:00:00;404066;9.85702037429809;9.85702037429809
23.03.2000 00:00:00;404066;9.8002;9.8002
24.03.2000 00:00:00;404066;9.48061349945068;9.48061349945068
27.03.2000 00:00:00;404066;9.5552857761383;9.5552857761383
28.03.2000 00:00:00;404066;10.01385;10.01385
29.03.2000 00:00:00;404066;11.3838208106995;11.3838208106995
30.03.2000 00:00:00;404066;11.98645;11.98645
31.03.2000 00:00:00;404066;11.0673424327851;11.0673424327851
03.04.2000 00:00:00;404066;12.1678875;12.1678875
04.04.2000 00:00:00;404066;11.8531361927033;11.8531361927033
05.04.2000 00:00:00;404066;11.4987232761384;11.4987232761384
06.04.2000 00:00:00;404066;12.1353375;12.1353375
07.04.2000 00:00:00;404066;12.3204375;12.3204375
10.04.2000 00:00:00;404066;11.734875;11.734875
11.04.2000 00:00:00;404066;12.2262236133576;12.2262236133576
12.04.2000 00:00:00;404066;12.7361550815583;12.7361550815583
13.04.2000 00:00:00;404066;12.86005;12.86005
14.04.2000 00:00:00;404066;12.1551;12.1551
17.04.2000 00:00:00;404066;12.0089800518036;12.0089800518036
18.04.2000 00:00:00;404066;12.5293125;12.5293125
19.04.2000 00:00:00;404066;12.361309123993;12.361309123993
20.04.2000 00:00:00;404066;12.7016404037476;12.7016404037476
24.04.2000 00:00:00;404066;12.3655125;12.3655125
25.04.2000 00:00:00;404066;12.752775;12.752775
26.04.2000 00:00:00;404066;12.81301875;12.81301875
27.04.2000 00:00:00;404066;13.1976;13.1976
28.04.2000 00:00:00;404066;13.68995625;13.68995625
01.05.2000 00:00:00;404066;14.22995625;14.22995625
02.05.2000 00:00:00;404066;14.785807818985;14.785807818985
03.05.2000 00:00:00;404066;14.749875;14.749875
04.05.2000 00:00:00;404066;15.51558125;15.51558125
05.05.2000 00:00:00;404066;15.8724459835053;15.8724459835053
08.05.2000 00:00:00;404066;16.2226;16.2226
09.05.2000 00:00:00;404066;15.8322487266541;15.8322487266541
10.05.2000 00:00:00;404066;15.79525;15.79525
11.05.2000 00:00:00;404066;16.3305081462861;16.3305081462861
12.05.2000 00:00:00;404066;16.3519296295166;16.3519296295166
15.05.2000 00:00:00;404066;16.140925;16.140925
16.05.2000 00:00:00;404066;15.4742;15.4742
17.05.2000 00:00:00;404066;16.6562275211335;16.6562275211335
18.05.2000 00:00:00;404066;17.1723375;17.1723375
19.05.2000 00:00:00;404066;17.3639929428101;17.3639929428101
22.05.2000 00:00:00;404066;17.2529798675538;17.2529798675538
23.05.2000 00:00:00;404066;17.19811875;17.19811875
24.05.2000 00:00:00;404066;16.9484701801301;16.9484701801301
25.05.2000 00:00:00;404066;16.6333671493531;16.6333671493531
26.05.2000 00:00:00;404066;16.1265;16.1265
30.05.2000 00:00:00;404066;16.70634375;16.70634375
31.05.2000 00:00:00;404066;17.428125;17.428125
01.06.2000 00:00:00;404066;17.2208220207215;17.2208220207215
02.06.2000 00:00:00;404066;16.17415;16.17415
05.06.2000 00:00:00;404066;15.9345242282868;15.9345242282868
06.06.2000 00:00:00;404066;16.3903;16.3903
07.06.2000 00:00:00;404066;16.2828125;16.2828125
08.06.2000 00:00:00;404066;16.8646925914765;16.8646925914765
09.06.2000 00:00:00;404066;16.6344051906586;16.6344051906586
12.06.2000 00:00:00;404066;17.0595457115174;17.0595457115174
13.06.2000 00:00:00;404066;17.293325;17.293325
14.06.2000 00:00:00;404066;17.4602;17.4602
15.06.2000 00:00:00;404066;17.446275;17.446275
16.06.2000 00:00:00;404066;17.95133125;17.95133125
19.06.2000 00:00:00;404066;17.5091296749116;17.5091296749116
20.06.2000 00:00:00;404066;17.5700206718445;17.5700206718445
21.06.2000 00:00:00;404066;17.77249375;17.77249375
22.06.2000 00:00:00;404066;17.1919183948517;17.1919183948517
23.06.2000 00:00:00;404066;17.657081093216;17.657081093216
26.06.2000 00:00:00;404066;17.33225;17.33225
27.06.2000 00:00:00;404066;17.4486931667328;17.4486931667328
28.06.2000 00:00:00;404066;17.7018650070191;17.7018650070191
29.06.2000 00:00:00;404066;17.73225;17.73225
30.06.2000 00:00:00;404066;17.535575;17.535575
03.07.2000 00:00:00;404066;17.2938864505768;17.2938864505768
05.07.2000 00:00:00;404066;15.4878457115174;15.4878457115174
06.07.2000 00:00:00;404066;15.0951875;15.0951875
07.07.2000 00:00:00;404066;15.816;15.816
10.07.2000 00:00:00;404066;15.95143125;15.95143125
11.07.2000 00:00:00;404066;17.04381875;17.04381875
12.07.2000 00:00:00;404066;16.7200871250153;16.7200871250153
13.07.2000 00:00:00;404066;17.0818249225617;17.0818249225617
14.07.2000 00:00:00;404066;16.809975;16.809975
17.07.2000 00:00:00;404066;16.24910625;16.24910625
18.07.2000 00:00:00;404066;16.828875;16.828875
19.07.2000 00:00:00;404066;16.5284123630524;16.5284123630524
20.07.2000 00:00:00;404066;15.5527;15.5527
21.07.2000 00:00:00;404066;15.1032908798218;15.1032908798218
24.07.2000 00:00:00;404066;14.612240562439;14.612240562439
25.07.2000 00:00:00;404066;14.4936;14.4936
26.07.2000 00:00:00;404066;14.8060371746064;14.8060371746064
27.07.2000 00:00:00;404066;15.66745;15.66745
28.07.2000 00:00:00;404066;16.083;16.083
31.07.2000 00:00:00;404066;15.9844973777771;15.9844973777771
01.08.2000 00:00:00;404066;16.65860625;16.65860625
02.08.2000 00:00:00;404066;17.3376;17.3376
03.08.2000 00:00:00;404066;17.2368;17.2368
04.08.2000 00:00:00;404066;17.8524;17.8524
07.08.2000 00:00:00;404066;18.146970269394;18.146970269394
08.08.2000 00:00:00;404066;18.078101519394;18.078101519394
09.08.2000 00:00:00;404066;18.3678125;18.3678125
10.08.2000 00:00:00;404066;19.0117239051819;19.0117239051819
11.08.2000 00:00:00;404066;18.868325;18.868325
14.08.2000 00:00:00;404066;19.143775;19.143775
15.08.2000 00:00:00;404066;19.55695;19.55695
16.08.2000 00:00:00;404066;19.419225;19.419225
17.08.2000 00:00:00;404066;19.970125;19.970125
18.08.2000 00:00:00;404066;19.9012625;19.9012625
21.08.2000 00:00:00;404066;20.0389875;20.0389875
22.08.2000 00:00:00;404066;20.3194268070221;20.3194268070221
23.08.2000 00:00:00;404066;21.0437375;21.0437375
24.08.2000 00:00:00;404066;21.1502115440369;21.1502115440369
25.08.2000 00:00:00;404066;21.009842427063;21.009842427063
28.08.2000 00:00:00;404066;21.0193268268586;21.0193268268586
29.08.2000 00:00:00;404066;21.5831112266541;21.5831112266541
30.08.2000 00:00:00;404066;21.1153125;21.1153125
31.08.2000 00:00:00;404066;21.4295625;21.4295625
01.09.2000 00:00:00;404066;21.569625;21.569625
05.09.2000 00:00:00;404066;21.67935;21.67935
06.09.2000 00:00:00;404066;22.101675;22.101675
07.09.2000 00:00:00;404066;22.511316350174;22.511316350174
08.09.2000 00:00:00;404066;22.1630625;22.1630625
11.09.2000 00:00:00;404066;22.8997447280884;22.8997447280884
12.09.2000 00:00:00;404066;23.332925;23.332925
13.09.2000 00:00:00;404066;22.7895483043671;22.7895483043671
14.09.2000 00:00:00;404066;22.85075;22.85075
15.09.2000 00:00:00;404066;22.911975;22.911975
18.09.2000 00:00:00;404066;23.2916078430176;23.2916078430176
19.09.2000 00:00:00;404066;22.7577675304413;22.7577675304413
20.09.2000 00:00:00;404066;23.3065426197053;23.3065426197053
21.09.2000 00:00:00;404066;22.5981;22.5981
22.09.2000 00:00:00;404066;22.1996;22.1996
25.09.2000 00:00:00;404066;21.1430095149994;21.1430095149994
26.09.2000 00:00:00;404066;22.2800942520142;22.2800942520142
27.09.2000 00:00:00;404066;22.4123;22.4123
28.09.2000 00:00:00;404066;22.14225;22.14225
29.09.2000 00:00:00;404066;22.01296875;22.01296875
02.10.2000 00:00:00;404066;22.4433373374939;22.4433373374939
03.10.2000 00:00:00;404066;22.473525;22.473525
04.10.2000 00:00:00;404066;21.51209375;21.51209375
05.10.2000 00:00:00;404066;21.1633974514008;21.1633974514008
06.10.2000 00:00:00;404066;21.8273976894379;21.8273976894379
09.10.2000 00:00:00;404066;21.80274375;21.80274375
10.10.2000 00:00:00;404066;23.3478320892335;23.3478320892335
11.10.2000 00:00:00;404066;24.3338875;24.3338875
12.10.2000 00:00:00;404066;24.1671125;24.1671125
13.10.2000 00:00:00;404066;24.0418854969025;24.0418854969025
16.10.2000 00:00:00;404066;23.85465;23.85465
17.10.2000 00:00:00;404066;25.02825;25.02825
18.10.2000 00:00:00;404066;24.8282125;24.8282125
19.10.2000 00:00:00;404066;25.1395903526307;25.1395903526307
20.10.2000 00:00:00;404066;25.8171370738984;25.8171370738984
23.10.2000 00:00:00;404066;25.5414308734894;25.5414308734894
24.10.2000 00:00:00;404066;23.794;23.794
25.10.2000 00:00:00;404066;22.0047311611176;22.0047311611176
26.10.2000 00:00:00;404066;22.8878625;22.8878625
27.10.2000 00:00:00;404066;23.1163875;23.1163875
30.10.2000 00:00:00;404066;22.96835625;22.96835625
31.10.2000 00:00:00;404066;23.3454375;23.3454375
01.11.2000 00:00:00;404066;24.82215625;24.82215625
02.11.2000 00:00:00;404066;23.9086983737946;23.9086983737946
03.11.2000 00:00:00;404066;23.605425;23.605425
06.11.2000 00:00:00;404066;23.13348125;23.13348125
07.11.2000 00:00:00;404066;23.22519375;23.22519375
08.11.2000 00:00:00;404066;23.8056;23.8056
09.11.2000 00:00:00;404066;23.1993861019135;23.1993861019135
10.11.2000 00:00:00;404066;23.30893125;23.30893125
13.11.2000 00:00:00;404066;22.587701285553;22.587701285553
14.11.2000 00:00:00;404066;23.4798375;23.4798375
15.11.2000 00:00:00;404066;25.5215625;25.5215625
16.11.2000 00:00:00;404066;26.0226580810547;26.0226580810547
17.11.2000 00:00:00;404066;25.6209625;25.6209625
20.11.2000 00:00:00;404066;24.864125;24.864125
21.11.2000 00:00:00;404066;25.9978774360657;25.9978774360657
22.11.2000 00:00:00;404066;26.0942;26.0942
24.11.2000 00:00:00;404066;27.129375;27.129375
27.11.2000 00:00:00;404066;26.8483875;26.8483875
28.11.2000 00:00:00;404066;26.41695;26.41695
29.11.2000 00:00:00;404066;24.9319171337128;24.9319171337128
30.11.2000 00:00:00;404066;24.359181930542;24.359181930542
01.12.2000 00:00:00;404066;25.4094192123414;25.4094192123414
04.12.2000 00:00:00;404066;25.898;25.898
05.12.2000 00:00:00;404066;26.13591877594;26.13591877594
06.12.2000 00:00:00;404066;26.7843;26.7843
07.12.2000 00:00:00;404066;25.610902779007;25.610902779007
08.12.2000 00:00:00;404066;25.7826875;25.7826875
11.12.2000 00:00:00;404066;27.101125;27.101125
12.12.2000 00:00:00;404066;27.5285190139771;27.5285190139771
13.12.2000 00:00:00;404066;27.9580504127503;27.9580504127503
14.12.2000 00:00:00;404066;26.5618995796204;26.5618995796204
15.12.2000 00:00:00;404066;26.52950625;26.52950625
18.12.2000 00:00:00;404066;27.648225;27.648225
19.12.2000 00:00:00;404066;28.3484526203156;28.3484526203156
20.12.2000 00:00:00;404066;27.6339125;27.6339125
21.12.2000 00:00:00;404066;28.26726875;28.26726875
22.12.2000 00:00:00;404066;28.1632;28.1632
26.12.2000 00:00:00;404066;29.90934713974;29.90934713974
27.12.2000 00:00:00;404066;30.0831907211304;30.0831907211304
28.12.2000 00:00:00;404066;30.4509066387176;30.4509066387176
29.12.2000 00:00:00;404066;29.1375528442383;29.1375528442383
02.01.2001 00:00:00;404066;28.4470964256287;28.4470964256287
03.01.2001 00:00:00;404066;26.0239;26.0239
04.01.2001 00:00:00;404066;24.6297625;24.6297625
05.01.2001 00:00:00;404066;25.0705363811493;25.0705363811493
08.01.2001 00:00:00;404066;25.89624375;25.89624375
09.01.2001 00:00:00;404066;25.68954375;25.68954375
10.01.2001 00:00:00;404066;25.8725902053834;25.8725902053834
11.01.2001 00:00:00;404066;24.9602625;24.9602625
12.01.2001 00:00:00;404066;24.6421522094727;24.6421522094727
16.01.2001 00:00:00;404066;25.5171840446473;25.5171840446473
17.01.2001 00:00:00;404066;23.9816001010895;23.9816001010895
18.01.2001 00:00:00;404066;23.06805;23.06805
19.01.2001 00:00:00;404066;23.6295;23.6295
22.01.2001 00:00:00;404066;24.00975;24.00975
23.01.2001 00:00:00;404066;24.518;24.518
24.01.2001 00:00:00;404066;24.8354;24.8354
25.01.2001 00:00:00;404066;25.6410631267548;25.6410631267548
26.01.2001 00:00:00;404066;25.4109375;25.4109375
29.01.2001 00:00:00;404066;24.6980655813217;24.6980655813217
30.01.2001 00:00:00;404066;24.0033;24.0033
31.01.2001 00:00:00;404066;23.5015029018402;23.5015029018402
01.02.2001 00:00:00;404066;22.978725;22.978725
02.02.2001 00:00:00;404066;24.2952979078293;24.2952979078293
05.02.2001 00:00:00;404066;24.0752625;24.0752625
06.02.2001 00:00:00;404066;24.8048748283386;24.8048748283386
07.02.2001 00:00:00;404066;25.3707523269654;25.3707523269654
08.02.2001 00:00:00;404066;25.0991441692352;25.0991441692352
09.02.2001 00:00:00;404066;25.6266801589966;25.6266801589966
12.02.2001 00:00:00;404066;25.0593168357849;25.0593168357849
13.02.2001 00:00:00;404066;25.6809779169083;25.6809779169083
14.02.2001 00:00:00;404066;25.6225543338776;25.6225543338776
15.02.2001 00:00:00;404066;25.0101295787812;25.0101295787812
16.02.2001 00:00:00;404066;25.1240284996033;25.1240284996033
20.02.2001 00:00:00;404066;25.207416083908;25.207416083908
21.02.2001 00:00:00;404066;24.5961754198074;24.5961754198074
22.02.2001 00:00:00;404066;24.4027341556549;24.4027341556549
23.02.2001 00:00:00;404066;23.8459095834732;23.8459095834732
26.02.2001 00:00:00;404066;24.3362873291015;24.3362873291015
27.02.2001 00:00:00;404066;24.2726079156876;24.2726079156876
28.02.2001 00:00:00;404066;23.6224791732788;23.6224791732788
01.03.2001 00:00:00;404066;23.4499536720276;23.4499536720276
02.03.2001 00:00:00;404066;24.1690891822814;24.1690891822814
05.03.2001 00:00:00;404066;24.6019326568604;24.6019326568604
06.03.2001 00:00:00;404066;24.8598216815948;24.8598216815948
07.03.2001 00:00:00;404066;26.2704683425903;26.2704683425903
08.03.2001 00:00:00;404066;27.0772125;27.0772125
09.03.2001 00:00:00;404066;27.0575674180985;27.0575674180985
12.03.2001 00:00:00;404066;25.538375;25.538375
13.03.2001 00:00:00;404066;25.6300489997864;25.6300489997864
14.03.2001 00:00:00;404066;24.9249595825196;24.9249595825196
15.03.2001 00:00:00;404066;24.7487150058747;24.7487150058747
16.03.2001 00:00:00;404066;25.0947195726395;25.0947195726395
19.03.2001 00:00:00;404066;25.4313384803772;25.4313384803772
20.03.2001 00:00:00;404066;25.8087554216385;25.8087554216385
21.03.2001 00:00:00;404066;24.5703141498565;24.5703141498565
22.03.2001 00:00:00;404066;24.1274880859374;24.1274880859374
23.03.2001 00:00:00;404066;24.3640177434922;24.3640177434922
26.03.2001 00:00:00;404066;24.2491406703949;24.2491406703949
27.03.2001 00:00:00;404066;23.7506230855941;23.7506230855941
28.03.2001 00:00:00;404066;23.6143162267685;23.6143162267685
29.03.2001 00:00:00;404066;22.7631020866394;22.7631020866394
30.03.2001 00:00:00;404066;23.4454392396927;23.4454392396927
02.04.2001 00:00:00;404066;22.4911859134675;22.4911859134675
03.04.2001 00:00:00;404066;21.2354501579284;21.2354501579284
04.04.2001 00:00:00;404066;21.7246566612243;21.7246566612243
05.04.2001 00:00:00;404066;22.4779265205383;22.4779265205383
06.04.2001 00:00:00;404066;22.402319152832;22.402319152832
09.04.2001 00:00:00;404066;23.2974;23.2974
10.04.2001 00:00:00;404066;24.1813681869507;24.1813681869507
11.04.2001 00:00:00;404066;24.0894676551819;24.0894676551819
12.04.2001 00:00:00;404066;24.3076163421631;24.3076163421631
16.04.2001 00:00:00;404066;25.180114844513;25.180114844513
17.04.2001 00:00:00;404066;25.704363779068;25.704363779068
18.04.2001 00:00:00;404066;25.2658719532013;25.2658719532013
19.04.2001 00:00:00;404066;24.2775110580444;24.2775110580444
20.04.2001 00:00:00;404066;24.1966904224395;24.1966904224395
23.04.2001 00:00:00;404066;26.1678558513642;26.1678558513642
24.04.2001 00:00:00;404066;26.0773508529664;26.0773508529664
25.04.2001 00:00:00;404066;26.5800207345963;26.5800207345963
26.04.2001 00:00:00;404066;26.5504340164184;26.5504340164184
27.04.2001 00:00:00;404066;26.5092845724106;26.5092845724106
30.04.2001 00:00:00;404066;26.1338061561584;26.1338061561584
01.05.2001 00:00:00;404066;25.4383654270172;25.4383654270172
02.05.2001 00:00:00;404066;23.779131230545;23.779131230545
03.05.2001 00:00:00;404066;23.6805588432312;23.6805588432312
04.05.2001 00:00:00;404066;24.4218930978775;24.4218930978775
07.05.2001 00:00:00;404066;24.4789208557129;24.4789208557129
08.05.2001 00:00:00;404066;24.9084;24.9084
09.05.2001 00:00:00;404066;25.5560804313659;25.5560804313659
10.05.2001 00:00:00;404066;25.1498080329895;25.1498080329895
11.05.2001 00:00:00;404066;25.3536689128876;25.3536689128876
14.05.2001 00:00:00;404066;25.9883104362488;25.9883104362488
15.05.2001 00:00:00;404066;26.8363979131699;26.8363979131699
16.05.2001 00:00:00;404066;26.7439313095092;26.7439313095092
17.05.2001 00:00:00;404066;27.2453895864486;27.2453895864486
18.05.2001 00:00:00;404066;28.0529396957398;28.0529396957398
21.05.2001 00:00:00;404066;28.3994893035888;28.3994893035888
22.05.2001 00:00:00;404066;28.5243576169967;28.5243576169967
23.05.2001 00:00:00;404066;27.187401266098;27.187401266098
24.05.2001 00:00:00;404066;26.8374654794693;26.8374654794693
25.05.2001 00:00:00;404066;26.5216617330552;26.5216617330552
29.05.2001 00:00:00;404066;26.404223374939;26.404223374939
30.05.2001 00:00:00;404066;26.235;26.235
31.05.2001 00:00:00;404066;26.5255006393432;26.5255006393432
01.06.2001 00:00:00;404066;26.577;26.577
04.06.2001 00:00:00;404066;26.9969901319504;26.9969901319504
05.06.2001 00:00:00;404066;26.498409551239;26.498409551239
06.06.2001 00:00:00;404066;24.7093910068512;24.7093910068512
07.06.2001 00:00:00;404066;24.2041379102707;24.2041379102707
08.06.2001 00:00:00;404066;24.3123735771179;24.3123735771179
11.06.2001 00:00:00;404066;24.8494986337662;24.8494986337662
12.06.2001 00:00:00;404066;25.3400625;25.3400625
13.06.2001 00:00:00;404066;24.3762760734558;24.3762760734558
14.06.2001 00:00:00;404066;23.7368298225403;23.7368298225403
15.06.2001 00:00:00;404066;23.6196367080689;23.6196367080689
18.06.2001 00:00:00;404066;22.943575;22.943575
19.06.2001 00:00:00;404066;23.2980338758469;23.2980338758469
20.06.2001 00:00:00;404066;22.9966803588867;22.9966803588867
21.06.2001 00:00:00;404066;21.6379204467773;21.6379204467773
22.06.2001 00:00:00;404066;22.186571267128;22.186571267128
25.06.2001 00:00:00;404066;21.7955467910766;21.7955467910766
26.06.2001 00:00:00;404066;22.0092074691772;22.0092074691772
27.06.2001 00:00:00;404066;21.3064834686279;21.3064834686279
28.06.2001 00:00:00;404066;20.7466556396484;20.7466556396484
29.06.2001 00:00:00;404066;20.983387049675;20.983387049675
02.07.2001 00:00:00;404066;20.6127183609009;20.6127183609009
03.07.2001 00:00:00;404066;20.874200630188;20.874200630188
05.07.2001 00:00:00;404066;21.5344670442582;21.5344670442582
06.07.2001 00:00:00;404066;21.7395995492935;21.7395995492935
09.07.2001 00:00:00;404066;20.8948509006501;20.8948509006501
10.07.2001 00:00:00;404066;20.4341194648742;20.4341194648742
11.07.2001 00:00:00;404066;19.598625;19.598625
12.07.2001 00:00:00;404066;19.5003370159149;19.5003370159149
13.07.2001 00:00:00;404066;19.9436334848404;19.9436334848404
16.07.2001 00:00:00;404066;19.0752198570252;19.0752198570252
17.07.2001 00:00:00;404066;18.6274278213501;18.6274278213501
18.07.2001 00:00:00;404066;18.0006514561653;18.0006514561653
19.07.2001 00:00:00;404066;18.1219991045951;18.1219991045951
20.07.2001 00:00:00;404066;18.4336673870087;18.4336673870087
23.07.2001 00:00:00;404066;18.5104641201019;18.5104641201019
24.07.2001 00:00:00;404066;17.644831520462;17.644831520462
25.07.2001 00:00:00;404066;19.2567878927231;19.2567878927231
26.07.2001 00:00:00;404066;19.6857;19.6857
27.07.2001 00:00:00;404066;20.807801651001;20.807801651001
30.07.2001 00:00:00;404066;20.2328708721161;20.2328708721161
31.07.2001 00:00:00;404066;20.1989891281127;20.1989891281127
01.08.2001 00:00:00;404066;19.6787491321563;19.6787491321563
02.08.2001 00:00:00;404066;19.9689604328155;19.9689604328155
03.08.2001 00:00:00;404066;19.4345158960343;19.4345158960343
06.08.2001 00:00:00;404066;19.2767349594117;19.2767349594117
07.08.2001 00:00:00;404066;19.1526588478089;19.1526588478089
08.08.2001 00:00:00;404066;18.3401159561158;18.3401159561158
09.08.2001 00:00:00;404066;18.0972358589173;18.0972358589173
10.08.2001 00:00:00;404066;18.1812165613174;18.1812165613174
13.08.2001 00:00:00;404066;18.2201326797486;18.2201326797486
14.08.2001 00:00:00;404066;18.570725;18.570725
15.08.2001 00:00:00;404066;19.8557004184723;19.8557004184723
16.08.2001 00:00:00;404066;19.7664290031433;19.7664290031433
17.08.2001 00:00:00;404066;19.2466700838089;19.2466700838089
20.08.2001 00:00:00;404066;18.7142008361817;18.7142008361817
21.08.2001 00:00:00;404066;18.7106691627502;18.7106691627502
22.08.2001 00:00:00;404066;18.3382395019531;18.3382395019531
23.08.2001 00:00:00;404066;18.1587662498474;18.1587662498474
24.08.2001 00:00:00;404066;17.9693499212265;17.9693499212265
27.08.2001 00:00:00;404066;17.8778702516555;17.8778702516555
28.08.2001 00:00:00;404066;17.6609296646118;17.6609296646118
29.08.2001 00:00:00;404066;17.7003404193878;17.7003404193878
30.08.2001 00:00:00;404066;17.2600489583015;17.2600489583015
31.08.2001 00:00:00;404066;17.4162964622498;17.4162964622498
04.09.2001 00:00:00;404066;18.325125;18.325125
05.09.2001 00:00:00;404066;17.8546125;17.8546125
06.09.2001 00:00:00;404066;18.2203660240173;18.2203660240173
07.09.2001 00:00:00;404066;18.0714094871522;18.0714094871522
10.09.2001 00:00:00;404066;18.2126082452774;18.2126082452774
17.09.2001 00:00:00;404066;16.7388802490234;16.7388802490234
18.09.2001 00:00:00;404066;15.7111303759575;15.7111303759575
19.09.2001 00:00:00;404066;15.0787120819091;15.0787120819091
20.09.2001 00:00:00;404066;15.0759391700744;15.0759391700744
21.09.2001 00:00:00;404066;15.6003046646118;15.6003046646118
24.09.2001 00:00:00;404066;14.8686972910881;14.8686972910881
25.09.2001 00:00:00;404066;14.457807041359;14.457807041359
26.09.2001 00:00:00;404066;14.4308876693725;14.4308876693725
27.09.2001 00:00:00;404066;14.8634845846176;14.8634845846176
28.09.2001 00:00:00;404066;15.9028211677551;15.9028211677551
01.10.2001 00:00:00;404066;15.417627875042;15.417627875042
02.10.2001 00:00:00;404066;15.7938497915268;15.7938497915268
03.10.2001 00:00:00;404066;16.0845304985047;16.0845304985047
04.10.2001 00:00:00;404066;17.0226404590607;17.0226404590607
05.10.2001 00:00:00;404066;17.1653111254692;17.1653111254692
08.10.2001 00:00:00;404066;17.4444962493896;17.4444962493896
09.10.2001 00:00:00;404066;17.5506858329773;17.5506858329773
10.10.2001 00:00:00;404066;18.6439;18.6439
11.10.2001 00:00:00;404066;18.8673947458268;18.8673947458268
12.10.2001 00:00:00;404066;18.7378085752487;18.7378085752487
15.10.2001 00:00:00;404066;18.1246108406067;18.1246108406067
16.10.2001 00:00:00;404066;18.7512045839309;18.7512045839309
17.10.2001 00:00:00;404066;18.7675794267654;18.7675794267654
18.10.2001 00:00:00;404066;18.3662279861451;18.3662279861451
19.10.2001 00:00:00;404066;18.9057;18.9057
22.10.2001 00:00:00;404066;19.3117041572571;19.3117041572571
23.10.2001 00:00:00;404066;19.2937495708466;19.2937495708466
24.10.2001 00:00:00;404066;19.5436331581116;19.5436331581116
25.10.2001 00:00:00;404066;20.5827751594543;20.5827751594543
26.10.2001 00:00:00;404066;21.1214254274368;21.1214254274368
29.10.2001 00:00:00;404066;20.9699164155961;20.9699164155961
30.10.2001 00:00:00;404066;19.6419400108337;19.6419400108337
31.10.2001 00:00:00;404066;19.6409604068756;19.6409604068756
01.11.2001 00:00:00;404066;19.8554406738282;19.8554406738282
02.11.2001 00:00:00;404066;19.1210120124816;19.1210120124816
05.11.2001 00:00:00;404066;18.8686835212707;18.8686835212707
06.11.2001 00:00:00;404066;18.9884507656097;18.9884507656097
07.11.2001 00:00:00;404066;19.5980393218994;19.5980393218994
08.11.2001 00:00:00;404066;19.7901005256652;19.7901005256652
09.11.2001 00:00:00;404066;20.4924478416443;20.4924478416443
12.11.2001 00:00:00;404066;20.1456041484832;20.1456041484832
13.11.2001 00:00:00;404066;20.4663810386657;20.4663810386657
14.11.2001 00:00:00;404066;19.2700650489807;19.2700650489807
15.11.2001 00:00:00;404066;18.024930519104;18.024930519104
16.11.2001 00:00:00;404066;18.4973592412949;18.4973592412949
19.11.2001 00:00:00;404066;18.6396625;18.6396625
20.11.2001 00:00:00;404066;19.5050932222366;19.5050932222366
21.11.2001 00:00:00;404066;19.5383758262634;19.5383758262634
23.11.2001 00:00:00;404066;20.0368276519775;20.0368276519775
26.11.2001 00:00:00;404066;19.6354991340637;19.6354991340637
27.11.2001 00:00:00;404066;19.6172350387573;19.6172350387573
28.11.2001 00:00:00;404066;19.3812423976898;19.3812423976898
29.11.2001 00:00:00;404066;19.820412171936;19.820412171936
30.11.2001 00:00:00;404066;19.520588744545;19.520588744545
03.12.2001 00:00:00;404066;20.2504442573547;20.2504442573547
04.12.2001 00:00:00;404066;20.9307057426453;20.9307057426453
05.12.2001 00:00:00;404066;22.083461844635;22.083461844635
06.12.2001 00:00:00;404066;21.6410891445159;21.6410891445159
07.12.2001 00:00:00;404066;21.4287479143143;21.4287479143143
10.12.2001 00:00:00;404066;21.0318123435974;21.0318123435974
11.12.2001 00:00:00;404066;20.4349608566285;20.4349608566285
12.12.2001 00:00:00;404066;19.937745476532;19.937745476532
13.12.2001 00:00:00;404066;19.6263456802369;19.6263456802369
14.12.2001 00:00:00;404066;19.9671354095459;19.9671354095459
17.12.2001 00:00:00;404066;19.8081395778656;19.8081395778656
18.12.2001 00:00:00;404066;20.3409352386475;20.3409352386475
19.12.2001 00:00:00;404066;20.9000400848388;20.9000400848388
20.12.2001 00:00:00;404066;20.7334204252243;20.7334204252243
21.12.2001 00:00:00;404066;21.1200045549393;21.1200045549393
24.12.2001 00:00:00;404066;21.5992224130631;21.5992224130631
26.12.2001 00:00:00;404066;22.21635;22.21635
27.12.2001 00:00:00;404066;22.0355871902466;22.0355871902466
28.12.2001 00:00:00;404066;22.2488625;22.2488625
31.12.2001 00:00:00;404066;21.9759093429566;21.9759093429566
02.01.2002 00:00:00;404066;21.0866240844726;21.0866240844726
03.01.2002 00:00:00;404066;20.7628641517639;20.7628641517639
04.01.2002 00:00:00;404066;21.1132735115052;21.1132735115052
07.01.2002 00:00:00;404066;21.3529174016953;21.3529174016953
08.01.2002 00:00:00;404066;21.1401187435151;21.1401187435151
09.01.2002 00:00:00;404066;21.1125;21.1125
10.01.2002 00:00:00;404066;20.7927674016953;20.7927674016953
11.01.2002 00:00:00;404066;20.0080270998001;20.0080270998001
14.01.2002 00:00:00;404066;19.3656191459655;19.3656191459655
15.01.2002 00:00:00;404066;19.6910991439819;19.6910991439819
16.01.2002 00:00:00;404066;19.4381570863723;19.4381570863723
17.01.2002 00:00:00;404066;19.0679991340637;19.0679991340637
18.01.2002 00:00:00;404066;18.52995;18.52995
22.01.2002 00:00:00;404066;18.5032954317093;18.5032954317093
23.01.2002 00:00:00;404066;18.9871918273926;18.9871918273926
24.01.2002 00:00:00;404066;19.4461436523437;19.4461436523437
25.01.2002 00:00:00;404066;19.79777926445;19.79777926445
28.01.2002 00:00:00;404066;19.2933294349671;19.2933294349671
29.01.2002 00:00:00;404066;18.4852753090858;18.4852753090858
30.01.2002 00:00:00;404066;19.0441658832551;19.0441658832551
31.01.2002 00:00:00;404066;19.7328954744339;19.7328954744339
01.02.2002 00:00:00;404066;19.3165622657775;19.3165622657775
04.02.2002 00:00:00;404066;19.0302640323639;19.0302640323639
05.02.2002 00:00:00;404066;18.9322600879669;18.9322600879669
06.02.2002 00:00:00;404066;18.8098252098084;18.8098252098084
07.02.2002 00:00:00;404066;18.3231595603943;18.3231595603943
08.02.2002 00:00:00;404066;18.4416502132416;18.4416502132416
11.02.2002 00:00:00;404066;18.8498998260498;18.8498998260498
12.02.2002 00:00:00;404066;18.4825808704377;18.4825808704377
13.02.2002 00:00:00;404066;18.6315568008422;18.6315568008422
14.02.2002 00:00:00;404066;18.9321687372208;18.9321687372208
15.02.2002 00:00:00;404066;18.7117158744813;18.7117158744813
19.02.2002 00:00:00;404066;18.7238098258972;18.7238098258972
20.02.2002 00:00:00;404066;18.6140712120056;18.6140712120056
21.02.2002 00:00:00;404066;19.1232717884064;19.1232717884064
22.02.2002 00:00:00;404066;19.4288222614288;19.4288222614288
25.02.2002 00:00:00;404066;20.0193766130447;20.0193766130447
26.02.2002 00:00:00;404066;19.939388384819;19.939388384819
27.02.2002 00:00:00;404066;19.959975;19.959975
28.02.2002 00:00:00;404066;20.3310217065811;20.3310217065811
01.03.2002 00:00:00;404066;20.3079133815766;20.3079133815766
04.03.2002 00:00:00;404066;20.5025104381561;20.5025104381561
05.03.2002 00:00:00;404066;20.6572274122239;20.6572274122239
06.03.2002 00:00:00;404066;21.677040435791;21.677040435791
07.03.2002 00:00:00;404066;22.1853109550476;22.1853109550476
08.03.2002 00:00:00;404066;22.2344714775085;22.2344714775085
11.03.2002 00:00:00;404066;22.5329949577332;22.5329949577332
12.03.2002 00:00:00;404066;22.5949145641327;22.5949145641327
13.03.2002 00:00:00;404066;22.7210245445251;22.7210245445251
14.03.2002 00:00:00;404066;22.3271891342163;22.3271891342163
15.03.2002 00:00:00;404066;22.2331625;22.2331625
18.03.2002 00:00:00;404066;22.6279126060486;22.6279126060486
19.03.2002 00:00:00;404066;23.1369752597808;23.1369752597808
20.03.2002 00:00:00;404066;22.8914661727905;22.8914661727905
21.03.2002 00:00:00;404066;23.3094183643342;23.3094183643342
22.03.2002 00:00:00;404066;22.8389919132233;22.8389919132233
25.03.2002 00:00:00;404066;22.7475526092529;22.7475526092529
26.03.2002 00:00:00;404066;22.4127895648957;22.4127895648957
27.03.2002 00:00:00;404066;23.2896744514466;23.2896744514466
28.03.2002 00:00:00;404066;23.2976647888184;23.2976647888184
01.04.2002 00:00:00;404066;23.4991721534729;23.4991721534729
02.04.2002 00:00:00;404066;24.1069360427856;24.1069360427856
03.04.2002 00:00:00;404066;23.3504803466797;23.3504803466797
04.04.2002 00:00:00;404066;22.6267574783325;22.6267574783325
05.04.2002 00:00:00;404066;22.2959625;22.2959625
08.04.2002 00:00:00;404066;22.9773642385483;22.9773642385483
09.04.2002 00:00:00;404066;22.1944088058471;22.1944088058471
10.04.2002 00:00:00;404066;22.7985243469238;22.7985243469238
11.04.2002 00:00:00;404066;22.6890033081054;22.6890033081054
12.04.2002 00:00:00;404066;21.6276603057861;21.6276603057861
15.04.2002 00:00:00;404066;22.1122401733399;22.1122401733399
16.04.2002 00:00:00;404066;21.998811635971;21.998811635971
17.04.2002 00:00:00;404066;22.5927986564636;22.5927986564636
18.04.2002 00:00:00;404066;22.8493658576966;22.8493658576966
19.04.2002 00:00:00;404066;23.2327447723389;23.2327447723389
22.04.2002 00:00:00;404066;23.2847550859451;23.2847550859451
23.04.2002 00:00:00;404066;23.4458254289627;23.4458254289627
24.04.2002 00:00:00;404066;22.9984070587158;22.9984070587158
25.04.2002 00:00:00;404066;23.2596247549057;23.2596247549057
26.04.2002 00:00:00;404066;23.4600910947799;23.4600910947799
29.04.2002 00:00:00;404066;23.3247293380737;23.3247293380737
30.04.2002 00:00:00;404066;23.6343970762253;23.6343970762253
01.05.2002 00:00:00;404066;23.4760967575073;23.4760967575073
02.05.2002 00:00:00;404066;23.9198404224395;23.9198404224395
03.05.2002 00:00:00;404066;23.955321250534;23.955321250534
06.05.2002 00:00:00;404066;23.0373436660767;23.0373436660767
07.05.2002 00:00:00;404066;23.171265583992;23.171265583992
08.05.2002 00:00:00;404066;24.0029574943542;24.0029574943542
09.05.2002 00:00:00;404066;23.5097189960479;23.5097189960479
10.05.2002 00:00:00;404066;23.4441;23.4441
13.05.2002 00:00:00;404066;23.9627236648559;23.9627236648559
14.05.2002 00:00:00;404066;24.2141704227447;24.2141704227447
15.05.2002 00:00:00;404066;23.5058068367005;23.5058068367005
16.05.2002 00:00:00;404066;23.7921845031739;23.7921845031739
17.05.2002 00:00:00;404066;23.0528808296204;23.0528808296204
20.05.2002 00:00:00;404066;23.1818304141998;23.1818304141998
21.05.2002 00:00:00;404066;23.1148115873337;23.1148115873337
22.05.2002 00:00:00;404066;23.2146465940475;23.2146465940475
23.05.2002 00:00:00;404066;23.371094669342;23.371094669342
24.05.2002 00:00:00;404066;22.8790208282471;22.8790208282471
28.05.2002 00:00:00;404066;22.5200698356628;22.5200698356628
29.05.2002 00:00:00;404066;22.4555280818939;22.4555280818939
30.05.2002 00:00:00;404066;21.7167490116119;21.7167490116119
31.05.2002 00:00:00;404066;21.95345;21.95345
03.06.2002 00:00:00;404066;21.3645918251038;21.3645918251038
04.06.2002 00:00:00;404066;21.1324738380432;21.1324738380432
05.06.2002 00:00:00;404066;20.9944927288055;20.9944927288055
06.06.2002 00:00:00;404066;20.7489091129303;20.7489091129303
07.06.2002 00:00:00;404066;21.0608474845887;21.0608474845887
10.06.2002 00:00:00;404066;20.3486851615906;20.3486851615906
11.06.2002 00:00:00;404066;20.0162117425918;20.0162117425918
12.06.2002 00:00:00;404066;19.9829066944122;19.9829066944122
13.06.2002 00:00:00;404066;20.1512795959473;20.1512795959473
14.06.2002 00:00:00;404066;20.2919029693603;20.2919029693603
17.06.2002 00:00:00;404066;20.7734575149536;20.7734575149536
18.06.2002 00:00:00;404066;20.6340083042145;20.6340083042145
19.06.2002 00:00:00;404066;20.4589124797821;20.4589124797821
20.06.2002 00:00:00;404066;20.2091807626725;20.2091807626725
21.06.2002 00:00:00;404066;20.0027233703613;20.0027233703613
24.06.2002 00:00:00;404066;19.985964220047;19.985964220047
25.06.2002 00:00:00;404066;20.1722274492264;20.1722274492264
26.06.2002 00:00:00;404066;19.8546338459015;19.8546338459015
27.06.2002 00:00:00;404066;19.85331357193;19.85331357193
28.06.2002 00:00:00;404066;20.1199603866577;20.1199603866577
01.07.2002 00:00:00;404066;19.5570453855514;19.5570453855514
02.07.2002 00:00:00;404066;19.1608445686341;19.1608445686341
03.07.2002 00:00:00;404066;19.2679766998291;19.2679766998291
05.07.2002 00:00:00;404066;19.7761628623962;19.7761628623962
08.07.2002 00:00:00;404066;18.9487107730866;18.9487107730866
09.07.2002 00:00:00;404066;18.6133688446045;18.6133688446045
10.07.2002 00:00:00;404066;18.1903655368805;18.1903655368805
11.07.2002 00:00:00;404066;17.8877965381622;17.8877965381622
12.07.2002 00:00:00;404066;17.780817616272;17.780817616272
15.07.2002 00:00:00;404066;17.5495067424774;17.5495067424774
16.07.2002 00:00:00;404066;17.3974932552338;17.3974932552338
17.07.2002 00:00:00;404066;17.4399816970825;17.4399816970825
18.07.2002 00:00:00;404066;17.3353605308533;17.3353605308533
19.07.2002 00:00:00;404066;16.7307223230362;16.7307223230362
22.07.2002 00:00:00;404066;15.6631755844116;15.6631755844116
23.07.2002 00:00:00;404066;15.579441153717;15.579441153717
24.07.2002 00:00:00;404066;16.4951196163178;16.4951196163178
25.07.2002 00:00:00;404066;15.8797625;15.8797625
26.07.2002 00:00:00;404066;16.3720990753174;16.3720990753174
29.07.2002 00:00:00;404066;17.5204396102906;17.5204396102906
30.07.2002 00:00:00;404066;17.3932954277038;17.3932954277038
31.07.2002 00:00:00;404066;17.4981874671936;17.4981874671936
01.08.2002 00:00:00;404066;16.8926625;16.8926625
02.08.2002 00:00:00;404066;16.7768373092652;16.7768373092652
05.08.2002 00:00:00;404066;16.2207292712212;16.2207292712212
06.08.2002 00:00:00;404066;17.2007167882919;17.2007167882919
07.08.2002 00:00:00;404066;17.3147039215088;17.3147039215088
08.08.2002 00:00:00;404066;18.1005395259857;18.1005395259857
09.08.2002 00:00:00;404066;18.2663431365967;18.2663431365967
12.08.2002 00:00:00;404066;18.4158;18.4158
13.08.2002 00:00:00;404066;17.6209418575287;17.6209418575287
14.08.2002 00:00:00;404066;17.6619792266845;17.6619792266845
15.08.2002 00:00:00;404066;18.22535;18.22535
16.08.2002 00:00:00;404066;17.8536142238616;17.8536142238616
19.08.2002 00:00:00;404066;18.0339;18.0339
20.08.2002 00:00:00;404066;17.6313477659226;17.6313477659226
21.08.2002 00:00:00;404066;17.7536691427231;17.7536691427231
22.08.2002 00:00:00;404066;18.3950180557251;18.3950180557251
23.08.2002 00:00:00;404066;18.0451529418945;18.0451529418945
26.08.2002 00:00:00;404066;18.2519522352218;18.2519522352218
27.08.2002 00:00:00;404066;18.3269507789612;18.3269507789612
28.08.2002 00:00:00;404066;17.8274058551788;17.8274058551788
29.08.2002 00:00:00;404066;17.4143571468353;17.4143571468353
30.08.2002 00:00:00;404066;17.7649160778045;17.7649160778045
03.09.2002 00:00:00;404066;16.8404221170426;16.8404221170426
04.09.2002 00:00:00;404066;16.979745384407;16.979745384407
05.09.2002 00:00:00;404066;17.1577946155548;17.1577946155548
06.09.2002 00:00:00;404066;17.5998403869629;17.5998403869629
09.09.2002 00:00:00;404066;17.6032246112824;17.6032246112824
10.09.2002 00:00:00;404066;18.1363167171478;18.1363167171478
11.09.2002 00:00:00;404066;18.2997744512558;18.2997744512558
12.09.2002 00:00:00;404066;17.9646073436737;17.9646073436737
13.09.2002 00:00:00;404066;18.0449676254273;18.0449676254273
16.09.2002 00:00:00;404066;18.3559849214554;18.3559849214554
17.09.2002 00:00:00;404066;17.9707749729157;17.9707749729157
18.09.2002 00:00:00;404066;17.9972452661515;17.9972452661515
19.09.2002 00:00:00;404066;17.4162696212769;17.4162696212769
20.09.2002 00:00:00;404066;17.3042732328415;17.3042732328415
23.09.2002 00:00:00;404066;17.401038155365;17.401038155365
24.09.2002 00:00:00;404066;16.8680154560089;16.8680154560089
25.09.2002 00:00:00;404066;17.6256821107865;17.6256821107865
26.09.2002 00:00:00;404066;18.2278463436127;18.2278463436127
27.09.2002 00:00:00;404066;18.2538881561279;18.2538881561279
30.09.2002 00:00:00;404066;18.2335175357818;18.2335175357818
01.10.2002 00:00:00;404066;18.3207492256164;18.3207492256164
02.10.2002 00:00:00;404066;18.540569852829;18.540569852829
03.10.2002 00:00:00;404066;18.1225693817138;18.1225693817138
04.10.2002 00:00:00;404066;17.7874911209107;17.7874911209107
07.10.2002 00:00:00;404066;17.6235092227935;17.6235092227935
08.10.2002 00:00:00;404066;17.4352832790375;17.4352832790375
09.10.2002 00:00:00;404066;16.8765121957779;16.8765121957779
10.10.2002 00:00:00;404066;16.8949779281616;16.8949779281616
11.10.2002 00:00:00;404066;17.2414517677307;17.2414517677307
14.10.2002 00:00:00;404066;18.1350923812866;18.1350923812866
15.10.2002 00:00:00;404066;18.7889514556885;18.7889514556885
16.10.2002 00:00:00;404066;18.4963146995544;18.4963146995544
17.10.2002 00:00:00;404066;19.3006996078491;19.3006996078491
18.10.2002 00:00:00;404066;19.2268174430847;19.2268174430847
21.10.2002 00:00:00;404066;19.417859608078;19.417859608078
22.10.2002 00:00:00;404066;19.0338372659684;19.0338372659684
23.10.2002 00:00:00;404066;19.8834292190551;19.8834292190551
24.10.2002 00:00:00;404066;19.6478182350158;19.6478182350158
25.10.2002 00:00:00;404066;18.6744641250611;18.6744641250611
28.10.2002 00:00:00;404066;18.6501650438309;18.6501650438309
29.10.2002 00:00:00;404066;18.1675832324981;18.1675832324981
30.10.2002 00:00:00;404066;18.9670496120453;18.9670496120453
31.10.2002 00:00:00;404066;18.7427338821411;18.7427338821411
01.11.2002 00:00:00;404066;18.8814757652283;18.8814757652283
04.11.2002 00:00:00;404066;19.0365945367813;19.0365945367813
05.11.2002 00:00:00;404066;18.8512285423279;18.8512285423279
06.11.2002 00:00:00;404066;19.0632282295227;19.0632282295227
07.11.2002 00:00:00;404066;18.791811302948;18.791811302948
08.11.2002 00:00:00;404066;18.4975668281555;18.4975668281555
11.11.2002 00:00:00;404066;18.3817395477295;18.3817395477295
12.11.2002 00:00:00;404066;18.2623941978454;18.2623941978454
13.11.2002 00:00:00;404066;17.8192417415618;17.8192417415618
14.11.2002 00:00:00;404066;18.7464745887757;18.7464745887757
15.11.2002 00:00:00;404066;18.6483990756988;18.6483990756988
18.11.2002 00:00:00;404066;18.8357515457153;18.8357515457153
19.11.2002 00:00:00;404066;18.9404646789551;18.9404646789551
20.11.2002 00:00:00;404066;19.8901507606507;19.8901507606507
21.11.2002 00:00:00;404066;20.1941263053894;20.1941263053894
22.11.2002 00:00:00;404066;19.2571655359268;19.2571655359268
25.11.2002 00:00:00;404066;19.4602757682801;19.4602757682801
26.11.2002 00:00:00;404066;19.0133815383911;19.0133815383911
27.11.2002 00:00:00;404066;19.3447973831176;19.3447973831176
29.11.2002 00:00:00;404066;19.5148797304153;19.5148797304153
02.12.2002 00:00:00;404066;19.6876785768508;19.6876785768508
03.12.2002 00:00:00;404066;19.7771873113632;19.7771873113632
04.12.2002 00:00:00;404066;19.4408299657822;19.4408299657822
05.12.2002 00:00:00;404066;19.6707246871948;19.6707246871948
06.12.2002 00:00:00;404066;19.7785323028565;19.7785323028565
09.12.2002 00:00:00;404066;19.5186975294113;19.5186975294113
10.12.2002 00:00:00;404066;19.9253839242936;19.9253839242936
11.12.2002 00:00:00;404066;19.9748513946533;19.9748513946533
12.12.2002 00:00:00;404066;20.3674418239594;20.3674418239594
13.12.2002 00:00:00;404066;20.1272399253846;20.1272399253846
16.12.2002 00:00:00;404066;20.2617175230026;20.2617175230026
17.12.2002 00:00:00;404066;19.8331103717804;19.8331103717804
18.12.2002 00:00:00;404066;19.4386179792404;19.4386179792404
19.12.2002 00:00:00;404066;19.4781196266175;19.4781196266175
20.12.2002 00:00:00;404066;20.1527907028198;20.1527907028198
23.12.2002 00:00:00;404066;20.3779889253617;20.3779889253617
24.12.2002 00:00:00;404066;20.0498091665268;20.0498091665268
26.12.2002 00:00:00;404066;19.8451342632293;19.8451342632293
27.12.2002 00:00:00;404066;19.2664135128021;19.2664135128021
30.12.2002 00:00:00;404066;19.1519096351624;19.1519096351624
31.12.2002 00:00:00;404066;19.0358511268616;19.0358511268616
02.01.2003 00:00:00;404066;19.8535259263993;19.8535259263993
03.01.2003 00:00:00;404066;19.6279107322693;19.6279107322693
06.01.2003 00:00:00;404066;19.4464603645324;19.4464603645324
07.01.2003 00:00:00;404066;18.5980625;18.5980625
08.01.2003 00:00:00;404066;18.4941130113602;18.4941130113602
09.01.2003 00:00:00;404066;18.755081937027;18.755081937027
10.01.2003 00:00:00;404066;18.469485131073;18.469485131073
13.01.2003 00:00:00;404066;18.3735117828369;18.3735117828369
14.01.2003 00:00:00;404066;18.4099971443176;18.4099971443176
15.01.2003 00:00:00;404066;18.7181520721435;18.7181520721435
16.01.2003 00:00:00;404066;18.7240905721664;18.7240905721664
17.01.2003 00:00:00;404066;18.4180625;18.4180625
21.01.2003 00:00:00;404066;17.9667519998551;17.9667519998551
22.01.2003 00:00:00;404066;17.8387242174149;17.8387242174149
23.01.2003 00:00:00;404066;17.7884346456528;17.7884346456528
24.01.2003 00:00:00;404066;17.2694507045746;17.2694507045746
27.01.2003 00:00:00;404066;16.6068;16.6068
28.01.2003 00:00:00;404066;17.1244530704498;17.1244530704498
29.01.2003 00:00:00;404066;17.681280702591;17.681280702591
30.01.2003 00:00:00;404066;17.5978219291687;17.5978219291687
31.01.2003 00:00:00;404066;18.050531218338;18.050531218338
03.02.2003 00:00:00;404066;17.9765301418305;17.9765301418305
04.02.2003 00:00:00;404066;18.3394272193909;18.3394272193909
05.02.2003 00:00:00;404066;18.3340497743607;18.3340497743607
06.02.2003 00:00:00;404066;18.234508275032;18.234508275032
07.02.2003 00:00:00;404066;18.0781971467972;18.0781971467972
10.02.2003 00:00:00;404066;18.3401541481018;18.3401541481018
11.02.2003 00:00:00;404066;18.2762582130432;18.2762582130432
12.02.2003 00:00:00;404066;17.797823928833;17.797823928833
13.02.2003 00:00:00;404066;17.7485203521728;17.7485203521728
14.02.2003 00:00:00;404066;18.0053284946442;18.0053284946442
18.02.2003 00:00:00;404066;18.4278195724487;18.4278195724487
19.02.2003 00:00:00;404066;18.5043032188416;18.5043032188416
20.02.2003 00:00:00;404066;18.5764203525543;18.5764203525543
21.02.2003 00:00:00;404066;18.8201292926788;18.8201292926788
24.02.2003 00:00:00;404066;19.3332681415558;19.3332681415558
25.02.2003 00:00:00;404066;19.4116680707931;19.4116680707931
26.02.2003 00:00:00;404066;19.5171407173157;19.5171407173157
27.02.2003 00:00:00;404066;19.282975;19.282975
28.02.2003 00:00:00;404066;19.1611346460343;19.1611346460343
03.03.2003 00:00:00;404066;18.8773957042695;18.8773957042695
04.03.2003 00:00:00;404066;18.7874157009125;18.7874157009125
05.03.2003 00:00:00;404066;18.9604808349609;18.9604808349609
06.03.2003 00:00:00;404066;19.0333793060302;19.0333793060302
07.03.2003 00:00:00;404066;19.08439215374;19.08439215374
10.03.2003 00:00:00;404066;19.1252406979302;19.1252406979302
11.03.2003 00:00:00;404066;18.875389589102;18.875389589102
12.03.2003 00:00:00;404066;18.6028078422971;18.6028078422971
13.03.2003 00:00:00;404066;18.3079582199138;18.3079582199138
14.03.2003 00:00:00;404066;18.1924623455274;18.1924623455274
17.03.2003 00:00:00;404066;18.3541120192872;18.3541120192872
18.03.2003 00:00:00;404066;18.8705941723425;18.8705941723425
19.03.2003 00:00:00;404066;18.918776041662;18.918776041662
20.03.2003 00:00:00;404066;19.0775333861165;19.0775333861165
21.03.2003 00:00:00;404066;18.4841574038538;18.4841574038538
24.03.2003 00:00:00;404066;18.1945421635165;18.1945421635165
25.03.2003 00:00:00;404066;18.4853541367381;18.4853541367381
26.03.2003 00:00:00;404066;18.3446446874708;18.3446446874708
27.03.2003 00:00:00;404066;18.4894379198404;18.4894379198404
28.03.2003 00:00:00;404066;18.7371472016206;18.7371472016206
31.03.2003 00:00:00;404066;18.205246835381;18.205246835381
01.04.2003 00:00:00;404066;18.5449686693635;18.5449686693635
02.04.2003 00:00:00;404066;18.2680742482216;18.2680742482216
03.04.2003 00:00:00;404066;18.2090952426618;18.2090952426618
04.04.2003 00:00:00;404066;17.8400901649356;17.8400901649356
07.04.2003 00:00:00;404066;17.8293833800364;17.8293833800364
08.04.2003 00:00:00;404066;17.3639177525252;17.3639177525252
09.04.2003 00:00:00;404066;17.2795141293969;17.2795141293969
10.04.2003 00:00:00;404066;17.9076030764451;17.9076030764451
11.04.2003 00:00:00;404066;17.868821825655;17.868821825655
14.04.2003 00:00:00;404066;17.8821548403402;17.8821548403402
15.04.2003 00:00:00;404066;17.8671256401959;17.8671256401959
16.04.2003 00:00:00;404066;17.5689522383843;17.5689522383843
17.04.2003 00:00:00;404066;17.7881967102982;17.7881967102982
21.04.2003 00:00:00;404066;18.0042278768756;18.0042278768756
22.04.2003 00:00:00;404066;18.0895803615478;18.0895803615478
23.04.2003 00:00:00;404066;17.878092722976;17.878092722976
24.04.2003 00:00:00;404066;17.4911184867786;17.4911184867786
25.04.2003 00:00:00;404066;17.4465364216655;17.4465364216655
28.04.2003 00:00:00;404066;17.3089158195985;17.3089158195985
29.04.2003 00:00:00;404066;16.7824810663249;16.7824810663249
30.04.2003 00:00:00;404066;17.0887816897329;17.0887816897329
01.05.2003 00:00:00;404066;16.4885090226991;16.4885090226991
02.05.2003 00:00:00;404066;16.6132189725018;16.6132189725018
05.05.2003 00:00:00;404066;16.8751677498795;16.8751677498795
06.05.2003 00:00:00;404066;16.5206619558403;16.5206619558403
07.05.2003 00:00:00;404066;16.3939475929235;16.3939475929235
08.05.2003 00:00:00;404066;16.4415018448067;16.4415018448067
09.05.2003 00:00:00;404066;16.5546439879441;16.5546439879441
12.05.2003 00:00:00;404066;16.6983990275242;16.6983990275242
13.05.2003 00:00:00;404066;17.0485231246853;17.0485231246853
14.05.2003 00:00:00;404066;17.2472491363419;17.2472491363419
15.05.2003 00:00:00;404066;17.4215259570299;17.4215259570299
16.05.2003 00:00:00;404066;17.5931613626147;17.5931613626147
19.05.2003 00:00:00;404066;17.0698229700838;17.0698229700838
20.05.2003 00:00:00;404066;16.8445062928599;16.8445062928599
21.05.2003 00:00:00;404066;17.6029804788659;17.6029804788659
22.05.2003 00:00:00;404066;17.7138701487526;17.7138701487526
23.05.2003 00:00:00;404066;17.8613938441804;17.8613938441804
27.05.2003 00:00:00;404066;17.9873689350352;17.9873689350352
28.05.2003 00:00:00;404066;18.1355788618432;18.1355788618432
29.05.2003 00:00:00;404066;17.9887411741682;17.9887411741682
30.05.2003 00:00:00;404066;18.2658071173602;18.2658071173602
02.06.2003 00:00:00;404066;18.6380396325044;18.6380396325044
03.06.2003 00:00:00;404066;18.892312698866;18.892312698866
04.06.2003 00:00:00;404066;18.8276624503789;18.8276624503789
05.06.2003 00:00:00;404066;18.8809692634317;18.8809692634317
06.06.2003 00:00:00;404066;18.5284133277076;18.5284133277076
09.06.2003 00:00:00;404066;18.5438968895435;18.5438968895435
10.06.2003 00:00:00;404066;18.5505264868415;18.5505264868415
11.06.2003 00:00:00;404066;19.3115823457018;19.3115823457018
12.06.2003 00:00:00;404066;18.6726419120719;18.6726419120719
13.06.2003 00:00:00;404066;18.1438562429884;18.1438562429884
16.06.2003 00:00:00;404066;17.7183649108581;17.7183649108581
17.06.2003 00:00:00;404066;17.7252271376355;17.7252271376355
18.06.2003 00:00:00;404066;17.6671796198113;17.6671796198113
19.06.2003 00:00:00;404066;18.1371697717223;18.1371697717223
20.06.2003 00:00:00;404066;17.9476132377274;17.9476132377274
23.06.2003 00:00:00;404066;18.1629495342637;18.1629495342637
24.06.2003 00:00:00;404066;18.1234821527328;18.1234821527328
25.06.2003 00:00:00;404066;18.6625535599772;18.6625535599772
26.06.2003 00:00:00;404066;18.3735992394237;18.3735992394237
27.06.2003 00:00:00;404066;18.3849999700845;18.3849999700845
30.06.2003 00:00:00;404066;18.3589294219279;18.3589294219279
01.07.2003 00:00:00;404066;17.9557287030842;17.9557287030842
02.07.2003 00:00:00;404066;17.8068503219246;17.8068503219246
03.07.2003 00:00:00;404066;18.0227474903463;18.0227474903463
07.07.2003 00:00:00;404066;17.7622863855728;17.7622863855728
08.07.2003 00:00:00;404066;17.7828182490436;17.7828182490436
09.07.2003 00:00:00;404066;17.86313425364;17.86313425364
10.07.2003 00:00:00;404066;17.4132436936023;17.4132436936023
11.07.2003 00:00:00;404066;17.4856131031368;17.4856131031368
14.07.2003 00:00:00;404066;17.1244439019118;17.1244439019118
15.07.2003 00:00:00;404066;16.9379087374225;16.9379087374225
16.07.2003 00:00:00;404066;16.9982000259981;16.9982000259981
17.07.2003 00:00:00;404066;17.3883931977408;17.3883931977408
18.07.2003 00:00:00;404066;17.7739974762444;17.7739974762444
21.07.2003 00:00:00;404066;17.505325152174;17.505325152174
22.07.2003 00:00:00;404066;17.2667906928405;17.2667906928405
23.07.2003 00:00:00;404066;17.0626534579799;17.0626534579799
24.07.2003 00:00:00;404066;16.6724784238515;16.6724784238515
25.07.2003 00:00:00;404066;17.0350310124924;17.0350310124924
28.07.2003 00:00:00;404066;17.1053777577109;17.1053777577109
29.07.2003 00:00:00;404066;16.6928785864887;16.6928785864887
30.07.2003 00:00:00;404066;16.9312404009611;16.9312404009611
31.07.2003 00:00:00;404066;17.2049684025274;17.2049684025274
01.08.2003 00:00:00;404066;17.4557544741495;17.4557544741495
04.08.2003 00:00:00;404066;16.9166587964342;16.9166587964342
05.08.2003 00:00:00;404066;17.0622614380023;17.0622614380023
06.08.2003 00:00:00;404066;17.1806167400881;17.1806167400881
07.08.2003 00:00:00;404066;17.6899289916345;17.6899289916345
08.08.2003 00:00:00;404066;17.5316063333977;17.5316063333977
11.08.2003 00:00:00;404066;18.1397411310784;18.1397411310784
12.08.2003 00:00:00;404066;18.4772030449167;18.4772030449167
13.08.2003 00:00:00;404066;18.461127030222;18.461127030222
14.08.2003 00:00:00;404066;18.2727356255452;18.2727356255452
15.08.2003 00:00:00;404066;18.4395586190029;18.4395586190029
18.08.2003 00:00:00;404066;18.6513623000901;18.6513623000901
19.08.2003 00:00:00;404066;18.4474342820272;18.4474342820272
20.08.2003 00:00:00;404066;18.5956015175645;18.5956015175645
21.08.2003 00:00:00;404066;18.9507303446749;18.9507303446749
22.08.2003 00:00:00;404066;19.2067289803876;19.2067289803876
25.08.2003 00:00:00;404066;19.0927493559073;19.0927493559073
26.08.2003 00:00:00;404066;19.1576209467764;19.1576209467764
27.08.2003 00:00:00;404066;19.0892364305428;19.0892364305428
28.08.2003 00:00:00;404066;19.530960043404;19.530960043404
29.08.2003 00:00:00;404066;19.4978393846588;19.4978393846588
02.09.2003 00:00:00;404066;19.6009600160304;19.6009600160304
03.09.2003 00:00:00;404066;19.7479778762686;19.7479778762686
04.09.2003 00:00:00;404066;19.6600596345588;19.6600596345588
05.09.2003 00:00:00;404066;19.1675846447153;19.1675846447153
08.09.2003 00:00:00;404066;19.0732362688558;19.0732362688558
09.09.2003 00:00:00;404066;18.5381413639069;18.5381413639069
10.09.2003 00:00:00;404066;18.4377791525108;18.4377791525108
11.09.2003 00:00:00;404066;18.2171583814851;18.2171583814851
12.09.2003 00:00:00;404066;18.3243490186556;18.3243490186556
15.09.2003 00:00:00;404066;18.1478512752694;18.1478512752694
16.09.2003 00:00:00;404066;18.5627396125271;18.5627396125271
17.09.2003 00:00:00;404066;18.3076504801491;18.3076504801491
18.09.2003 00:00:00;404066;18.4493642749178;18.4493642749178
19.09.2003 00:00:00;404066;18.3934607810019;18.3934607810019
22.09.2003 00:00:00;404066;18.2028648300478;18.2028648300478
23.09.2003 00:00:00;404066;18.0333591987864;18.0333591987864
24.09.2003 00:00:00;404066;18.2814950524729;18.2814950524729
25.09.2003 00:00:00;404066;17.9958118837798;17.9958118837798
26.09.2003 00:00:00;404066;17.7601117530411;17.7601117530411
29.09.2003 00:00:00;404066;17.9873498914782;17.9873498914782
30.09.2003 00:00:00;404066;17.8972651052512;17.8972651052512
01.10.2003 00:00:00;404066;17.912559329416;17.912559329416
02.10.2003 00:00:00;404066;18.1385171892223;18.1385171892223
03.10.2003 00:00:00;404066;18.235999819611;18.235999819611
06.10.2003 00:00:00;404066;18.3661099912843;18.3661099912843
07.10.2003 00:00:00;404066;18.1066802999318;18.1066802999318
08.10.2003 00:00:00;404066;17.9979608303669;17.9979608303669
09.10.2003 00:00:00;404066;17.8753390260364;17.8753390260364
10.10.2003 00:00:00;404066;18.1698401904114;18.1698401904114
13.10.2003 00:00:00;404066;18.3620906426718;18.3620906426718
14.10.2003 00:00:00;404066;18.2330179911488;18.2330179911488
15.10.2003 00:00:00;404066;17.7878835955348;17.7878835955348
16.10.2003 00:00:00;404066;18.0195640981637;18.0195640981637
17.10.2003 00:00:00;404066;18.032999308915;18.032999308915
20.10.2003 00:00:00;404066;17.81905685703;17.81905685703
21.10.2003 00:00:00;404066;18.111694725199;18.111694725199
22.10.2003 00:00:00;404066;18.0627144489092;18.0627144489092
23.10.2003 00:00:00;404066;17.8279733909359;17.8279733909359
24.10.2003 00:00:00;404066;17.8827135545826;17.8827135545826
27.10.2003 00:00:00;404066;17.6330152670326;17.6330152670326
28.10.2003 00:00:00;404066;17.6680105437067;17.6680105437067
29.10.2003 00:00:00;404066;17.8274646328642;17.8274646328642
30.10.2003 00:00:00;404066;17.6400071771448;17.6400071771448
31.10.2003 00:00:00;404066;18.1575316225648;18.1575316225648
03.11.2003 00:00:00;404066;18.2410845350143;18.2410845350143
04.11.2003 00:00:00;404066;18.1547358764617;18.1547358764617
05.11.2003 00:00:00;404066;18.2307631646148;18.2307631646148
06.11.2003 00:00:00;404066;18.2323592741547;18.2323592741547
07.11.2003 00:00:00;404066;18.3194383501536;18.3194383501536
10.11.2003 00:00:00;404066;18.2191544752444;18.2191544752444
11.11.2003 00:00:00;404066;18.2381158721431;18.2381158721431
12.11.2003 00:00:00;404066;18.4080885291336;18.4080885291336
13.11.2003 00:00:00;404066;18.4962657600725;18.4962657600725
14.11.2003 00:00:00;404066;18.288533514801;18.288533514801
17.11.2003 00:00:00;404066;18.01018275899;18.01018275899
18.11.2003 00:00:00;404066;18.1542527850757;18.1542527850757
19.11.2003 00:00:00;404066;17.932952253645;17.932952253645
20.11.2003 00:00:00;404066;17.9187341104236;17.9187341104236
21.11.2003 00:00:00;404066;17.7473830274938;17.7473830274938
24.11.2003 00:00:00;404066;17.7100147638407;17.7100147638407
25.11.2003 00:00:00;404066;17.8285663047533;17.8285663047533
26.11.2003 00:00:00;404066;17.7677896386562;17.7677896386562
28.11.2003 00:00:00;404066;17.5334442419352;17.5334442419352
01.12.2003 00:00:00;404066;17.6926919289896;17.6926919289896
02.12.2003 00:00:00;404066;17.983044516586;17.983044516586
03.12.2003 00:00:00;404066;17.5130255868501;17.5130255868501
04.12.2003 00:00:00;404066;18.5172878047253;18.5172878047253
05.12.2003 00:00:00;404066;18.4791633977103;18.4791633977103
08.12.2003 00:00:00;404066;18.4143531261788;18.4143531261788
09.12.2003 00:00:00;404066;18.4102980126933;18.4102980126933
10.12.2003 00:00:00;404066;18.3625782697308;18.3625782697308
11.12.2003 00:00:00;404066;18.4937686988978;18.4937686988978
12.12.2003 00:00:00;404066;18.71163183298;18.71163183298
15.12.2003 00:00:00;404066;18.5282518609908;18.5282518609908
16.12.2003 00:00:00;404066;18.57015063677;18.57015063677
17.12.2003 00:00:00;404066;18.7962591381469;18.7962591381469
18.12.2003 00:00:00;404066;19.0655032244861;19.0655032244861
19.12.2003 00:00:00;404066;18.9631486605688;18.9631486605688
22.12.2003 00:00:00;404066;18.7515122187273;18.7515122187273
23.12.2003 00:00:00;404066;18.6216651959678;18.6216651959678
24.12.2003 00:00:00;404066;18.893375920556;18.893375920556
26.12.2003 00:00:00;404066;18.9216472027952;18.9216472027952
29.12.2003 00:00:00;404066;18.9035152007228;18.9035152007228
30.12.2003 00:00:00;404066;18.8011224497387;18.8011224497387
