Asof;SecurityId;Price;AdjustedPrice
03.01.1995 00:00:00;414519;29.805;29.805
04.01.1995 00:00:00;414519;30.0209875;30.0209875
05.01.1995 00:00:00;414519;30.1644;30.1644
06.01.1995 00:00:00;414519;30.8077;30.8077
09.01.1995 00:00:00;414519;30.585375;30.585375
10.01.1995 00:00:00;414519;30.6969;30.6969
11.01.1995 00:00:00;414519;30.807325;30.807325
12.01.1995 00:00:00;414519;30.634625;30.634625
13.01.1995 00:00:00;414519;30.76415;30.76415
16.01.1995 00:00:00;414519;30.329625;30.329625
17.01.1995 00:00:00;414519;29.7388;29.7388
18.01.1995 00:00:00;414519;30.00925;30.00925
19.01.1995 00:00:00;414519;28.8008;28.8008
20.01.1995 00:00:00;414519;28.98;28.98
23.01.1995 00:00:00;414519;27.9210125;27.9210125
24.01.1995 00:00:00;414519;27.9282375;27.9282375
25.01.1995 00:00:00;414519;27.996875;27.996875
26.01.1995 00:00:00;414519;27.46635;27.46635
27.01.1995 00:00:00;414519;27.702675;27.702675
30.01.1995 00:00:00;414519;27.0005875;27.0005875
31.01.1995 00:00:00;414519;27.35535;27.35535
01.02.1995 00:00:00;414519;27.6474;27.6474
02.02.1995 00:00:00;414519;27.9432;27.9432
03.02.1995 00:00:00;414519;28.394325;28.394325
06.02.1995 00:00:00;414519;28.6590625;28.6590625
07.02.1995 00:00:00;414519;29.157975;29.157975
08.02.1995 00:00:00;414519;29.475425;29.475425
09.02.1995 00:00:00;414519;29.295;29.295
10.02.1995 00:00:00;414519;28.94325;28.94325
13.02.1995 00:00:00;414519;29.358175;29.358175
14.02.1995 00:00:00;414519;28.9245125;28.9245125
15.02.1995 00:00:00;414519;28.98375;28.98375
16.02.1995 00:00:00;414519;28.61625;28.61625
17.02.1995 00:00:00;414519;28.0053;28.0053
21.02.1995 00:00:00;414519;28.029375;28.029375
22.02.1995 00:00:00;414519;27.8277;27.8277
23.02.1995 00:00:00;414519;28.4630625;28.4630625
24.02.1995 00:00:00;414519;27.6464;27.6464
27.02.1995 00:00:00;414519;27.2819625;27.2819625
28.02.1995 00:00:00;414519;27.360375;27.360375
01.03.1995 00:00:00;414519;27.9901375;27.9901375
02.03.1995 00:00:00;414519;27.2966125;27.2966125
03.03.1995 00:00:00;414519;26.765025;26.765025
06.03.1995 00:00:00;414519;26.1942;26.1942
07.03.1995 00:00:00;414519;25.3008;25.3008
08.03.1995 00:00:00;414519;25.65;25.65
09.03.1995 00:00:00;414519;25.2405;25.2405
10.03.1995 00:00:00;414519;25.807925;25.807925
13.03.1995 00:00:00;414519;25.73285;25.73285
14.03.1995 00:00:00;414519;25.489275;25.489275
15.03.1995 00:00:00;414519;24.9984625;24.9984625
16.03.1995 00:00:00;414519;25.7004;25.7004
17.03.1995 00:00:00;414519;25.343175;25.343175
20.03.1995 00:00:00;414519;25.60415;25.60415
21.03.1995 00:00:00;414519;26.0064;26.0064
22.03.1995 00:00:00;414519;25.93775;25.93775
23.03.1995 00:00:00;414519;26.03475;26.03475
24.03.1995 00:00:00;414519;26.995075;26.995075
27.03.1995 00:00:00;414519;27.37375;27.37375
28.03.1995 00:00:00;414519;26.967;26.967
29.03.1995 00:00:00;414519;27.5808;27.5808
30.03.1995 00:00:00;414519;28.1619;28.1619
31.03.1995 00:00:00;414519;26.481625;26.481625
03.04.1995 00:00:00;414519;26.7599375;26.7599375
04.04.1995 00:00:00;414519;27.33105;27.33105
05.04.1995 00:00:00;414519;26.695;26.695
06.04.1995 00:00:00;414519;26.2260375;26.2260375
07.04.1995 00:00:00;414519;26.3605875;26.3605875
10.04.1995 00:00:00;414519;26.8005375;26.8005375
11.04.1995 00:00:00;414519;26.689625;26.689625
12.04.1995 00:00:00;414519;26.91;26.91
13.04.1995 00:00:00;414519;26.898825;26.898825
17.04.1995 00:00:00;414519;25.8852;25.8852
18.04.1995 00:00:00;414519;25.67975;25.67975
19.04.1995 00:00:00;414519;25.9046125;25.9046125
20.04.1995 00:00:00;414519;27.077175;27.077175
21.04.1995 00:00:00;414519;26.95;26.95
24.04.1995 00:00:00;414519;27.5262;27.5262
25.04.1995 00:00:00;414519;27.7256125;27.7256125
26.04.1995 00:00:00;414519;27.71715;27.71715
27.04.1995 00:00:00;414519;27.5009625;27.5009625
28.04.1995 00:00:00;414519;27.964125;27.964125
01.05.1995 00:00:00;414519;28.0608;28.0608
02.05.1995 00:00:00;414519;28.019775;28.019775
03.05.1995 00:00:00;414519;27.664875;27.664875
04.05.1995 00:00:00;414519;27.5221;27.5221
05.05.1995 00:00:00;414519;27.4696625;27.4696625
08.05.1995 00:00:00;414519;27.05525;27.05525
09.05.1995 00:00:00;414519;27.368;27.368
10.05.1995 00:00:00;414519;27.52025;27.52025
11.05.1995 00:00:00;414519;28.041075;28.041075
12.05.1995 00:00:00;414519;28.4013375;28.4013375
15.05.1995 00:00:00;414519;29.97405;29.97405
16.05.1995 00:00:00;414519;29.8065625;29.8065625
17.05.1995 00:00:00;414519;29.7684875;29.7684875
18.05.1995 00:00:00;414519;29.536;29.536
19.05.1995 00:00:00;414519;29.568;29.568
22.05.1995 00:00:00;414519;29.44;29.44
23.05.1995 00:00:00;414519;29.4397125;29.4397125
24.05.1995 00:00:00;414519;29.6958125;29.6958125
25.05.1995 00:00:00;414519;28.4005;28.4005
26.05.1995 00:00:00;414519;27.9316625;27.9316625
30.05.1995 00:00:00;414519;29.0977;29.0977
31.05.1995 00:00:00;414519;30.044925;30.044925
01.06.1995 00:00:00;414519;29.98375;29.98375
02.06.1995 00:00:00;414519;29.70825;29.70825
05.06.1995 00:00:00;414519;29.80115;29.80115
06.06.1995 00:00:00;414519;30.2505;30.2505
07.06.1995 00:00:00;414519;30.1896;30.1896
08.06.1995 00:00:00;414519;30.5735625;30.5735625
09.06.1995 00:00:00;414519;29.8219;29.8219
12.06.1995 00:00:00;414519;30.186775;30.186775
13.06.1995 00:00:00;414519;29.667;29.667
14.06.1995 00:00:00;414519;29.3232;29.3232
15.06.1995 00:00:00;414519;29.79;29.79
16.06.1995 00:00:00;414519;29.0834375;29.0834375
19.06.1995 00:00:00;414519;29.947275;29.947275
20.06.1995 00:00:00;414519;29.6161875;29.6161875
21.06.1995 00:00:00;414519;29.984575;29.984575
22.06.1995 00:00:00;414519;30.0174;30.0174
23.06.1995 00:00:00;414519;29.7696;29.7696
26.06.1995 00:00:00;414519;29.862;29.862
27.06.1995 00:00:00;414519;29.7444;29.7444
28.06.1995 00:00:00;414519;30.0258;30.0258
29.06.1995 00:00:00;414519;29.900325;29.900325
30.06.1995 00:00:00;414519;30.3494;30.3494
03.07.1995 00:00:00;414519;30.3408;30.3408
05.07.1995 00:00:00;414519;30.2568875;30.2568875
06.07.1995 00:00:00;414519;30.6791375;30.6791375
07.07.1995 00:00:00;414519;32.031;32.031
10.07.1995 00:00:00;414519;32.6838;32.6838
11.07.1995 00:00:00;414519;31.951;31.951
12.07.1995 00:00:00;414519;32.1305;32.1305
13.07.1995 00:00:00;414519;32.159175;32.159175
14.07.1995 00:00:00;414519;31.89715;31.89715
17.07.1995 00:00:00;414519;31.8444;31.8444
18.07.1995 00:00:00;414519;30.8502;30.8502
19.07.1995 00:00:00;414519;30.506625;30.506625
20.07.1995 00:00:00;414519;30.3212;30.3212
21.07.1995 00:00:00;414519;30.8646875;30.8646875
24.07.1995 00:00:00;414519;31.0503375;31.0503375
25.07.1995 00:00:00;414519;31.3676;31.3676
26.07.1995 00:00:00;414519;31.6346625;31.6346625
27.07.1995 00:00:00;414519;31.9827;31.9827
28.07.1995 00:00:00;414519;31.8717875;31.8717875
31.07.1995 00:00:00;414519;32.386425;32.386425
01.08.1995 00:00:00;414519;32.3656;32.3656
02.08.1995 00:00:00;414519;32.6838;32.6838
03.08.1995 00:00:00;414519;32.2959;32.2959
04.08.1995 00:00:00;414519;32.3266;32.3266
07.08.1995 00:00:00;414519;32.51665;32.51665
08.08.1995 00:00:00;414519;32.4225;32.4225
09.08.1995 00:00:00;414519;31.811325;31.811325
10.08.1995 00:00:00;414519;31.6935625;31.6935625
11.08.1995 00:00:00;414519;31.691;31.691
14.08.1995 00:00:00;414519;31.9640375;31.9640375
15.08.1995 00:00:00;414519;32.799;32.799
16.08.1995 00:00:00;414519;32.965625;32.965625
17.08.1995 00:00:00;414519;32.4736;32.4736
18.08.1995 00:00:00;414519;32.4564;32.4564
21.08.1995 00:00:00;414519;32.7468;32.7468
22.08.1995 00:00:00;414519;32.7706875;32.7706875
23.08.1995 00:00:00;414519;32.813775;32.813775
24.08.1995 00:00:00;414519;32.0143125;32.0143125
25.08.1995 00:00:00;414519;32.152275;32.152275
28.08.1995 00:00:00;414519;32.05335;32.05335
29.08.1995 00:00:00;414519;32.1776125;32.1776125
30.08.1995 00:00:00;414519;32.062;32.062
31.08.1995 00:00:00;414519;32.109525;32.109525
01.09.1995 00:00:00;414519;32.34235;32.34235
05.09.1995 00:00:00;414519;32.6184125;32.6184125
06.09.1995 00:00:00;414519;33.1475625;33.1475625
07.09.1995 00:00:00;414519;33.4176;33.4176
08.09.1995 00:00:00;414519;33.691875;33.691875
11.09.1995 00:00:00;414519;34.167375;34.167375
12.09.1995 00:00:00;414519;34.050625;34.050625
13.09.1995 00:00:00;414519;34.6710375;34.6710375
14.09.1995 00:00:00;414519;35.33535;35.33535
15.09.1995 00:00:00;414519;35.5049375;35.5049375
18.09.1995 00:00:00;414519;35.625;35.625
19.09.1995 00:00:00;414519;35.4583125;35.4583125
20.09.1995 00:00:00;414519;34.62275;34.62275
21.09.1995 00:00:00;414519;33.475275;33.475275
22.09.1995 00:00:00;414519;33.042075;33.042075
25.09.1995 00:00:00;414519;33.6812;33.6812
26.09.1995 00:00:00;414519;33.8422;33.8422
27.09.1995 00:00:00;414519;33.665375;33.665375
28.09.1995 00:00:00;414519;33.4512;33.4512
29.09.1995 00:00:00;414519;33.94035;33.94035
02.10.1995 00:00:00;414519;33.4158;33.4158
03.10.1995 00:00:00;414519;33.386925;33.386925
04.10.1995 00:00:00;414519;32.574;32.574
05.10.1995 00:00:00;414519;32.7195;32.7195
06.10.1995 00:00:00;414519;32.4111375;32.4111375
09.10.1995 00:00:00;414519;32.2326375;32.2326375
10.10.1995 00:00:00;414519;32.317425;32.317425
11.10.1995 00:00:00;414519;32.5182375;32.5182375
12.10.1995 00:00:00;414519;32.5613;32.5613
13.10.1995 00:00:00;414519;33.1192125;33.1192125
16.10.1995 00:00:00;414519;32.87865;32.87865
17.10.1995 00:00:00;414519;32.37215;32.37215
18.10.1995 00:00:00;414519;32.5601;32.5601
19.10.1995 00:00:00;414519;31.7592;31.7592
20.10.1995 00:00:00;414519;31.0851;31.0851
23.10.1995 00:00:00;414519;30.74145;30.74145
24.10.1995 00:00:00;414519;31.12375;31.12375
25.10.1995 00:00:00;414519;30.6031;30.6031
26.10.1995 00:00:00;414519;29.9887875;29.9887875
27.10.1995 00:00:00;414519;30.2484;30.2484
30.10.1995 00:00:00;414519;30.566;30.566
31.10.1995 00:00:00;414519;30.60425;30.60425
01.11.1995 00:00:00;414519;30.8136125;30.8136125
02.11.1995 00:00:00;414519;31.3303125;31.3303125
03.11.1995 00:00:00;414519;31.494;31.494
06.11.1995 00:00:00;414519;31.282725;31.282725
07.11.1995 00:00:00;414519;31.33895;31.33895
08.11.1995 00:00:00;414519;31.784375;31.784375
09.11.1995 00:00:00;414519;31.3983;31.3983
10.11.1995 00:00:00;414519;31.4338625;31.4338625
13.11.1995 00:00:00;414519;31.2871875;31.2871875
14.11.1995 00:00:00;414519;31.1535;31.1535
15.11.1995 00:00:00;414519;31.1389125;31.1389125
16.11.1995 00:00:00;414519;31.0159;31.0159
17.11.1995 00:00:00;414519;31.0198125;31.0198125
20.11.1995 00:00:00;414519;31.0284375;31.0284375
21.11.1995 00:00:00;414519;32.156775;32.156775
22.11.1995 00:00:00;414519;32.6836125;32.6836125
24.11.1995 00:00:00;414519;33.01935;33.01935
27.11.1995 00:00:00;414519;33.639975;33.639975
28.11.1995 00:00:00;414519;33.493575;33.493575
29.11.1995 00:00:00;414519;33.3007125;33.3007125
30.11.1995 00:00:00;414519;33.604725;33.604725
01.12.1995 00:00:00;414519;34.37745;34.37745
04.12.1995 00:00:00;414519;34.771275;34.771275
05.12.1995 00:00:00;414519;35.01985;35.01985
06.12.1995 00:00:00;414519;35.1234375;35.1234375
07.12.1995 00:00:00;414519;34.28445;34.28445
08.12.1995 00:00:00;414519;34.201875;34.201875
11.12.1995 00:00:00;414519;33.9802;33.9802
12.12.1995 00:00:00;414519;34.063;34.063
13.12.1995 00:00:00;414519;34.26165;34.26165
14.12.1995 00:00:00;414519;33.66285;33.66285
15.12.1995 00:00:00;414519;33.293225;33.293225
18.12.1995 00:00:00;414519;32.4691875;32.4691875
19.12.1995 00:00:00;414519;32.6245;32.6245
20.12.1995 00:00:00;414519;32.563575;32.563575
21.12.1995 00:00:00;414519;32.8306125;32.8306125
22.12.1995 00:00:00;414519;33.166875;33.166875
26.12.1995 00:00:00;414519;32.60515;32.60515
27.12.1995 00:00:00;414519;32.857475;32.857475
28.12.1995 00:00:00;414519;33.281375;33.281375
29.12.1995 00:00:00;414519;33.630825;33.630825
02.01.1996 00:00:00;414519;34.048525;34.048525
03.01.1996 00:00:00;414519;35.118675;35.118675
04.01.1996 00:00:00;414519;34.89375;34.89375
05.01.1996 00:00:00;414519;34.41735;34.41735
08.01.1996 00:00:00;414519;34.5;34.5
09.01.1996 00:00:00;414519;34.3299875;34.3299875
10.01.1996 00:00:00;414519;33.516125;33.516125
11.01.1996 00:00:00;414519;33.53805;33.53805
12.01.1996 00:00:00;414519;33.3157875;33.3157875
15.01.1996 00:00:00;414519;33.5820375;33.5820375
16.01.1996 00:00:00;414519;33.895125;33.895125
17.01.1996 00:00:00;414519;34.18415;34.18415
18.01.1996 00:00:00;414519;33.5981625;33.5981625
19.01.1996 00:00:00;414519;33.114375;33.114375
22.01.1996 00:00:00;414519;33.5886;33.5886
23.01.1996 00:00:00;414519;33.89365;33.89365
24.01.1996 00:00:00;414519;34.4350875;34.4350875
25.01.1996 00:00:00;414519;34.457875;34.457875
26.01.1996 00:00:00;414519;35.138025;35.138025
29.01.1996 00:00:00;414519;35.1939875;35.1939875
30.01.1996 00:00:00;414519;35.4723;35.4723
31.01.1996 00:00:00;414519;35.5487;35.5487
01.02.1996 00:00:00;414519;35.3331125;35.3331125
02.02.1996 00:00:00;414519;34.655625;34.655625
05.02.1996 00:00:00;414519;34.608875;34.608875
06.02.1996 00:00:00;414519;34.3601875;34.3601875
07.02.1996 00:00:00;414519;35.3056;35.3056
08.02.1996 00:00:00;414519;35.669025;35.669025
09.02.1996 00:00:00;414519;36.046475;36.046475
12.02.1996 00:00:00;414519;36.9313;36.9313
13.02.1996 00:00:00;414519;36.777;36.777
14.02.1996 00:00:00;414519;35.779075;35.779075
15.02.1996 00:00:00;414519;34.978075;34.978075
16.02.1996 00:00:00;414519;34.01055;34.01055
20.02.1996 00:00:00;414519;33.435;33.435
21.02.1996 00:00:00;414519;33.7227;33.7227
22.02.1996 00:00:00;414519;34.938475;34.938475
23.02.1996 00:00:00;414519;34.969725;34.969725
26.02.1996 00:00:00;414519;35.01225;35.01225
27.02.1996 00:00:00;414519;34.8505;34.8505
28.02.1996 00:00:00;414519;34.7858875;34.7858875
29.02.1996 00:00:00;414519;34.8415375;34.8415375
01.03.1996 00:00:00;414519;35.3625;35.3625
04.03.1996 00:00:00;414519;35.84825;35.84825
05.03.1996 00:00:00;414519;36.13605;36.13605
06.03.1996 00:00:00;414519;35.8245;35.8245
07.03.1996 00:00:00;414519;35.4328125;35.4328125
08.03.1996 00:00:00;414519;35.28885;35.28885
11.03.1996 00:00:00;414519;35.394425;35.394425
12.03.1996 00:00:00;414519;35.49455;35.49455
13.03.1996 00:00:00;414519;35.87115;35.87115
14.03.1996 00:00:00;414519;36.356375;36.356375
15.03.1996 00:00:00;414519;36.030725;36.030725
18.03.1996 00:00:00;414519;36.6972875;36.6972875
19.03.1996 00:00:00;414519;36.55445;36.55445
20.03.1996 00:00:00;414519;36.337075;36.337075
21.03.1996 00:00:00;414519;36.288;36.288
22.03.1996 00:00:00;414519;37.14435;37.14435
25.03.1996 00:00:00;414519;37.0391;37.0391
26.03.1996 00:00:00;414519;37.278125;37.278125
27.03.1996 00:00:00;414519;37.096125;37.096125
28.03.1996 00:00:00;414519;36.8761875;36.8761875
29.03.1996 00:00:00;414519;36.9055125;36.9055125
01.04.1996 00:00:00;414519;38.0895;38.0895
02.04.1996 00:00:00;414519;37.875;37.875
03.04.1996 00:00:00;414519;38.0986125;38.0986125
04.04.1996 00:00:00;414519;37.85;37.85
08.04.1996 00:00:00;414519;37.2830625;37.2830625
09.04.1996 00:00:00;414519;37.732375;37.732375
10.04.1996 00:00:00;414519;37.55555;37.55555
11.04.1996 00:00:00;414519;37.718175;37.718175
12.04.1996 00:00:00;414519;37.522875;37.522875
15.04.1996 00:00:00;414519;37.7754875;37.7754875
16.04.1996 00:00:00;414519;38.25855;38.25855
17.04.1996 00:00:00;414519;38.0335625;38.0335625
18.04.1996 00:00:00;414519;37.9764;37.9764
19.04.1996 00:00:00;414519;39.75285;39.75285
22.04.1996 00:00:00;414519;39.428125;39.428125
23.04.1996 00:00:00;414519;40.2809375;40.2809375
24.04.1996 00:00:00;414519;39.887875;39.887875
25.04.1996 00:00:00;414519;39.793075;39.793075
26.04.1996 00:00:00;414519;39.975;39.975
29.04.1996 00:00:00;414519;39.53425;39.53425
30.04.1996 00:00:00;414519;39.6646875;39.6646875
01.05.1996 00:00:00;414519;39.700125;39.700125
02.05.1996 00:00:00;414519;39.73725;39.73725
03.05.1996 00:00:00;414519;39.4203;39.4203
06.05.1996 00:00:00;414519;39.600225;39.600225
07.05.1996 00:00:00;414519;39.2169375;39.2169375
08.05.1996 00:00:00;414519;38.72;38.72
09.05.1996 00:00:00;414519;38.968875;38.968875
10.05.1996 00:00:00;414519;39.8106;39.8106
13.05.1996 00:00:00;414519;39.8453;39.8453
14.05.1996 00:00:00;414519;40.226125;40.226125
15.05.1996 00:00:00;414519;40.546125;40.546125
16.05.1996 00:00:00;414519;40.3657;40.3657
17.05.1996 00:00:00;414519;40.6796;40.6796
20.05.1996 00:00:00;414519;41.2737875;41.2737875
21.05.1996 00:00:00;414519;41.8223;41.8223
22.05.1996 00:00:00;414519;41.8996875;41.8996875
23.05.1996 00:00:00;414519;41.7958;41.7958
24.05.1996 00:00:00;414519;42.1502375;42.1502375
28.05.1996 00:00:00;414519;41.8399875;41.8399875
29.05.1996 00:00:00;414519;41.500075;41.500075
30.05.1996 00:00:00;414519;41.4831;41.4831
31.05.1996 00:00:00;414519;40.3029;40.3029
03.06.1996 00:00:00;414519;40.5704;40.5704
04.06.1996 00:00:00;414519;40.659625;40.659625
05.06.1996 00:00:00;414519;40.41205;40.41205
06.06.1996 00:00:00;414519;39.53645;39.53645
07.06.1996 00:00:00;414519;39.4563;39.4563
10.06.1996 00:00:00;414519;39.3130375;39.3130375
11.06.1996 00:00:00;414519;39.368175;39.368175
12.06.1996 00:00:00;414519;39.5343;39.5343
13.06.1996 00:00:00;414519;39.300525;39.300525
14.06.1996 00:00:00;414519;38.5605;38.5605
17.06.1996 00:00:00;414519;38.52885;38.52885
18.06.1996 00:00:00;414519;38.511475;38.511475
19.06.1996 00:00:00;414519;38.7055;38.7055
20.06.1996 00:00:00;414519;38.06385;38.06385
21.06.1996 00:00:00;414519;38.5923;38.5923
24.06.1996 00:00:00;414519;39.105;39.105
25.06.1996 00:00:00;414519;38.8315625;38.8315625
26.06.1996 00:00:00;414519;38.61;38.61
27.06.1996 00:00:00;414519;38.598325;38.598325
28.06.1996 00:00:00;414519;37.893375;37.893375
01.07.1996 00:00:00;414519;37.878875;37.878875
02.07.1996 00:00:00;414519;37.742175;37.742175
03.07.1996 00:00:00;414519;37.5385;37.5385
05.07.1996 00:00:00;414519;37.0283;37.0283
08.07.1996 00:00:00;414519;36.999875;36.999875
09.07.1996 00:00:00;414519;37.4208;37.4208
10.07.1996 00:00:00;414519;37.16655;37.16655
11.07.1996 00:00:00;414519;36.755775;36.755775
12.07.1996 00:00:00;414519;36.41825;36.41825
15.07.1996 00:00:00;414519;35.3353;35.3353
16.07.1996 00:00:00;414519;34.1004;34.1004
17.07.1996 00:00:00;414519;34.182;34.182
18.07.1996 00:00:00;414519;35.5861;35.5861
19.07.1996 00:00:00;414519;35.101125;35.101125
22.07.1996 00:00:00;414519;34.5345;34.5345
23.07.1996 00:00:00;414519;34.5621375;34.5621375
24.07.1996 00:00:00;414519;35.7999;35.7999
25.07.1996 00:00:00;414519;35.60765;35.60765
26.07.1996 00:00:00;414519;36.763;36.763
29.07.1996 00:00:00;414519;36.430625;36.430625
30.07.1996 00:00:00;414519;36.8859625;36.8859625
31.07.1996 00:00:00;414519;37.001525;37.001525
01.08.1996 00:00:00;414519;37.893525;37.893525
02.08.1996 00:00:00;414519;38.5203;38.5203
05.08.1996 00:00:00;414519;38.6631;38.6631
06.08.1996 00:00:00;414519;38.5886875;38.5886875
07.08.1996 00:00:00;414519;38.7447;38.7447
08.08.1996 00:00:00;414519;38.98335;38.98335
09.08.1996 00:00:00;414519;38.90825;38.90825
12.08.1996 00:00:00;414519;39.186375;39.186375
13.08.1996 00:00:00;414519;38.7316125;38.7316125
14.08.1996 00:00:00;414519;39.02445;39.02445
15.08.1996 00:00:00;414519;38.5294;38.5294
16.08.1996 00:00:00;414519;39.219675;39.219675
19.08.1996 00:00:00;414519;39.1503;39.1503
20.08.1996 00:00:00;414519;39.307275;39.307275
21.08.1996 00:00:00;414519;38.931975;38.931975
22.08.1996 00:00:00;414519;39.0032625;39.0032625
23.08.1996 00:00:00;414519;38.660725;38.660725
26.08.1996 00:00:00;414519;38.3079375;38.3079375
27.08.1996 00:00:00;414519;38.2775625;38.2775625
28.08.1996 00:00:00;414519;38.21175;38.21175
29.08.1996 00:00:00;414519;37.805;37.805
30.08.1996 00:00:00;414519;37.3719375;37.3719375
03.09.1996 00:00:00;414519;37.5606;37.5606
04.09.1996 00:00:00;414519;37.845;37.845
05.09.1996 00:00:00;414519;37.6703375;37.6703375
06.09.1996 00:00:00;414519;38.3307;38.3307
09.09.1996 00:00:00;414519;39.231875;39.231875
10.09.1996 00:00:00;414519;39.77345;39.77345
11.09.1996 00:00:00;414519;40.0764;40.0764
12.09.1996 00:00:00;414519;40.3291125;40.3291125
13.09.1996 00:00:00;414519;41.0326;41.0326
16.09.1996 00:00:00;414519;40.9478;40.9478
17.09.1996 00:00:00;414519;41.022;41.022
18.09.1996 00:00:00;414519;40.402075;40.402075
19.09.1996 00:00:00;414519;40.7159625;40.7159625
20.09.1996 00:00:00;414519;41.252775;41.252775
23.09.1996 00:00:00;414519;40.7863;40.7863
24.09.1996 00:00:00;414519;41.280225;41.280225
25.09.1996 00:00:00;414519;41.36085;41.36085
26.09.1996 00:00:00;414519;41.8006875;41.8006875
27.09.1996 00:00:00;414519;41.8006875;41.8006875
30.09.1996 00:00:00;414519;42.43425;42.43425
01.10.1996 00:00:00;414519;41.925;41.925
02.10.1996 00:00:00;414519;42.2658;42.2658
03.10.1996 00:00:00;414519;43.043;43.043
04.10.1996 00:00:00;414519;43.043;43.043
07.10.1996 00:00:00;414519;42.771375;42.771375
08.10.1996 00:00:00;414519;42.67305;42.67305
09.10.1996 00:00:00;414519;42.532125;42.532125
10.10.1996 00:00:00;414519;42.71675;42.71675
11.10.1996 00:00:00;414519;42.9726125;42.9726125
14.10.1996 00:00:00;414519;43.37325;43.37325
15.10.1996 00:00:00;414519;43.4109375;43.4109375
16.10.1996 00:00:00;414519;43.9121625;43.9121625
17.10.1996 00:00:00;414519;44.79845;44.79845
18.10.1996 00:00:00;414519;44.73035;44.73035
21.10.1996 00:00:00;414519;44.543075;44.543075
22.10.1996 00:00:00;414519;44.382675;44.382675
23.10.1996 00:00:00;414519;44.3004;44.3004
24.10.1996 00:00:00;414519;44.2089375;44.2089375
25.10.1996 00:00:00;414519;44.038;44.038
28.10.1996 00:00:00;414519;44.232;44.232
29.10.1996 00:00:00;414519;44.07765;44.07765
30.10.1996 00:00:00;414519;43.7598;43.7598
31.10.1996 00:00:00;414519;44.2035;44.2035
01.11.1996 00:00:00;414519;44.636325;44.636325
04.11.1996 00:00:00;414519;44.5614125;44.5614125
05.11.1996 00:00:00;414519;44.900625;44.900625
06.11.1996 00:00:00;414519;44.93415;44.93415
07.11.1996 00:00:00;414519;45.1647;45.1647
08.11.1996 00:00:00;414519;45.1119375;45.1119375
11.11.1996 00:00:00;414519;45.5056;45.5056
12.11.1996 00:00:00;414519;45.675825;45.675825
13.11.1996 00:00:00;414519;45.7674;45.7674
14.11.1996 00:00:00;414519;45.5716;45.5716
15.11.1996 00:00:00;414519;45.246775;45.246775
18.11.1996 00:00:00;414519;45.23955;45.23955
19.11.1996 00:00:00;414519;45.4241;45.4241
20.11.1996 00:00:00;414519;45.391425;45.391425
21.11.1996 00:00:00;414519;45.8462875;45.8462875
22.11.1996 00:00:00;414519;46.332325;46.332325
25.11.1996 00:00:00;414519;47.281725;47.281725
26.11.1996 00:00:00;414519;47.5861;47.5861
27.11.1996 00:00:00;414519;48.1661;48.1661
29.11.1996 00:00:00;414519;48.173125;48.173125
02.12.1996 00:00:00;414519;48.813375;48.813375
03.12.1996 00:00:00;414519;48.36915;48.36915
04.12.1996 00:00:00;414519;48.2482;48.2482
05.12.1996 00:00:00;414519;48.0938125;48.0938125
06.12.1996 00:00:00;414519;47.2952625;47.2952625
09.12.1996 00:00:00;414519;48.11565;48.11565
10.12.1996 00:00:00;414519;47.622;47.622
11.12.1996 00:00:00;414519;45.5822;45.5822
12.12.1996 00:00:00;414519;45.130175;45.130175
13.12.1996 00:00:00;414519;44.951675;44.951675
16.12.1996 00:00:00;414519;45.201;45.201
17.12.1996 00:00:00;414519;43.9227;43.9227
18.12.1996 00:00:00;414519;43.681;43.681
19.12.1996 00:00:00;414519;44.2878;44.2878
20.12.1996 00:00:00;414519;44.8723;44.8723
23.12.1996 00:00:00;414519;44.93445;44.93445
24.12.1996 00:00:00;414519;45.2554375;45.2554375
26.12.1996 00:00:00;414519;45.4315125;45.4315125
27.12.1996 00:00:00;414519;45.1503;45.1503
30.12.1996 00:00:00;414519;45.4715;45.4715
31.12.1996 00:00:00;414519;44.1535375;44.1535375
02.01.1997 00:00:00;414519;43.3565;43.3565
03.01.1997 00:00:00;414519;44.7838125;44.7838125
06.01.1997 00:00:00;414519;44.733525;44.733525
07.01.1997 00:00:00;414519;44.2;44.2
08.01.1997 00:00:00;414519;43.2003;43.2003
09.01.1997 00:00:00;414519;42.7498;42.7498
10.01.1997 00:00:00;414519;43.991325;43.991325
13.01.1997 00:00:00;414519;44.121525;44.121525
14.01.1997 00:00:00;414519;44.0956375;44.0956375
15.01.1997 00:00:00;414519;43.297575;43.297575
16.01.1997 00:00:00;414519;43.768725;43.768725
17.01.1997 00:00:00;414519;45.3271;45.3271
20.01.1997 00:00:00;414519;46.2093;46.2093
21.01.1997 00:00:00;414519;45.9459;45.9459
22.01.1997 00:00:00;414519;45.3784;45.3784
23.01.1997 00:00:00;414519;45.532025;45.532025
24.01.1997 00:00:00;414519;45.3324375;45.3324375
27.01.1997 00:00:00;414519;45.5166;45.5166
28.01.1997 00:00:00;414519;45.5544;45.5544
29.01.1997 00:00:00;414519;45.0610875;45.0610875
30.01.1997 00:00:00;414519;44.56125;44.56125
31.01.1997 00:00:00;414519;44.8116;44.8116
03.02.1997 00:00:00;414519;45.02355;45.02355
04.02.1997 00:00:00;414519;44.85635;44.85635
05.02.1997 00:00:00;414519;44.68875;44.68875
06.02.1997 00:00:00;414519;44.97495;44.97495
07.02.1997 00:00:00;414519;45.193275;45.193275
10.02.1997 00:00:00;414519;45.108075;45.108075
11.02.1997 00:00:00;414519;45.5440625;45.5440625
12.02.1997 00:00:00;414519;46.05815;46.05815
13.02.1997 00:00:00;414519;47.0008;47.0008
14.02.1997 00:00:00;414519;46.893;46.893
18.02.1997 00:00:00;414519;47.498;47.498
19.02.1997 00:00:00;414519;48.054425;48.054425
20.02.1997 00:00:00;414519;47.4375;47.4375
21.02.1997 00:00:00;414519;47.7941625;47.7941625
24.02.1997 00:00:00;414519;47.5649375;47.5649375
25.02.1997 00:00:00;414519;47.75545;47.75545
26.02.1997 00:00:00;414519;48.229325;48.229325
27.02.1997 00:00:00;414519;48.140125;48.140125
28.02.1997 00:00:00;414519;48.2944;48.2944
03.03.1997 00:00:00;414519;48.825;48.825
04.03.1997 00:00:00;414519;48.74975;48.74975
05.03.1997 00:00:00;414519;49.4375;49.4375
06.03.1997 00:00:00;414519;49.1624;49.1624
07.03.1997 00:00:00;414519;49.54235;49.54235
10.03.1997 00:00:00;414519;49.4179;49.4179
11.03.1997 00:00:00;414519;49.6527;49.6527
12.03.1997 00:00:00;414519;49.03635;49.03635
13.03.1997 00:00:00;414519;48.8152;48.8152
14.03.1997 00:00:00;414519;49.071225;49.071225
17.03.1997 00:00:00;414519;49.3502875;49.3502875
18.03.1997 00:00:00;414519;47.9812625;47.9812625
19.03.1997 00:00:00;414519;48.256275;48.256275
20.03.1997 00:00:00;414519;47.43395;47.43395
21.03.1997 00:00:00;414519;47.298525;47.298525
24.03.1997 00:00:00;414519;47.982125;47.982125
25.03.1997 00:00:00;414519;47.1425;47.1425
26.03.1997 00:00:00;414519;47.5695;47.5695
27.03.1997 00:00:00;414519;46.9675125;46.9675125
31.03.1997 00:00:00;414519;46.0512;46.0512
01.04.1997 00:00:00;414519;45.491475;45.491475
02.04.1997 00:00:00;414519;44.8172875;44.8172875
03.04.1997 00:00:00;414519;44.3872;44.3872
04.04.1997 00:00:00;414519;44.3303875;44.3303875
07.04.1997 00:00:00;414519;45.671725;45.671725
08.04.1997 00:00:00;414519;45.3123;45.3123
09.04.1997 00:00:00;414519;45.46935;45.46935
10.04.1997 00:00:00;414519;45.0053375;45.0053375
11.04.1997 00:00:00;414519;43.945;43.945
14.04.1997 00:00:00;414519;43.2327;43.2327
15.04.1997 00:00:00;414519;44.536575;44.536575
16.04.1997 00:00:00;414519;45.0738;45.0738
17.04.1997 00:00:00;414519;45.4351625;45.4351625
18.04.1997 00:00:00;414519;46.4333;46.4333
21.04.1997 00:00:00;414519;45.6732375;45.6732375
22.04.1997 00:00:00;414519;46.8981;46.8981
23.04.1997 00:00:00;414519;46.3803;46.3803
24.04.1997 00:00:00;414519;46.684275;46.684275
25.04.1997 00:00:00;414519;46.7301;46.7301
28.04.1997 00:00:00;414519;46.8785;46.8785
29.04.1997 00:00:00;414519;47.4075;47.4075
30.04.1997 00:00:00;414519;48.1273125;48.1273125
01.05.1997 00:00:00;414519;48.3064625;48.3064625
02.05.1997 00:00:00;414519;49.580825;49.580825
05.05.1997 00:00:00;414519;50.04205;50.04205
06.05.1997 00:00:00;414519;50.61725;50.61725
07.05.1997 00:00:00;414519;49.934325;49.934325
08.05.1997 00:00:00;414519;50.1745;50.1745
09.05.1997 00:00:00;414519;49.7419;49.7419
12.05.1997 00:00:00;414519;50.3801875;50.3801875
13.05.1997 00:00:00;414519;49.86975;49.86975
14.05.1997 00:00:00;414519;50.2644375;50.2644375
15.05.1997 00:00:00;414519;50.4678;50.4678
16.05.1997 00:00:00;414519;50.2723125;50.2723125
19.05.1997 00:00:00;414519;50.7152;50.7152
20.05.1997 00:00:00;414519;49.8072375;49.8072375
21.05.1997 00:00:00;414519;48.51445;48.51445
22.05.1997 00:00:00;414519;48.5072;48.5072
23.05.1997 00:00:00;414519;49.458825;49.458825
27.05.1997 00:00:00;414519;49.91055;49.91055
28.05.1997 00:00:00;414519;49.08255;49.08255
29.05.1997 00:00:00;414519;50.0346;50.0346
30.05.1997 00:00:00;414519;50.7838125;50.7838125
02.06.1997 00:00:00;414519;50.6319;50.6319
03.06.1997 00:00:00;414519;50.7195;50.7195
04.06.1997 00:00:00;414519;49.809375;49.809375
05.06.1997 00:00:00;414519;50.0508375;50.0508375
06.06.1997 00:00:00;414519;50.87135;50.87135
09.06.1997 00:00:00;414519;49.950675;49.950675
10.06.1997 00:00:00;414519;50.386725;50.386725
11.06.1997 00:00:00;414519;50.6583;50.6583
12.06.1997 00:00:00;414519;52.288125;52.288125
13.06.1997 00:00:00;414519;53.087875;53.087875
16.06.1997 00:00:00;414519;53.1925875;53.1925875
17.06.1997 00:00:00;414519;52.3788375;52.3788375
18.06.1997 00:00:00;414519;51.7144125;51.7144125
19.06.1997 00:00:00;414519;52.14825;52.14825
20.06.1997 00:00:00;414519;51.149925;51.149925
23.06.1997 00:00:00;414519;50.59425;50.59425
24.06.1997 00:00:00;414519;52.705475;52.705475
25.06.1997 00:00:00;414519;51.9475125;51.9475125
26.06.1997 00:00:00;414519;51.3185625;51.3185625
27.06.1997 00:00:00;414519;51.58853125;51.58853125
30.06.1997 00:00:00;414519;51.8068125;51.8068125
01.07.1997 00:00:00;414519;52.5572;52.5572
02.07.1997 00:00:00;414519;52.57813125;52.57813125
03.07.1997 00:00:00;414519;52.9964875;52.9964875
07.07.1997 00:00:00;414519;52.8168;52.8168
08.07.1997 00:00:00;414519;53.4375;53.4375
09.07.1997 00:00:00;414519;54.148575;54.148575
10.07.1997 00:00:00;414519;54.4563;54.4563
11.07.1997 00:00:00;414519;55.34094375;55.34094375
14.07.1997 00:00:00;414519;55.7442;55.7442
15.07.1997 00:00:00;414519;56.23245625;56.23245625
16.07.1997 00:00:00;414519;56.8788;56.8788
17.07.1997 00:00:00;414519;56.8214625;56.8214625
18.07.1997 00:00:00;414519;56.137725;56.137725
21.07.1997 00:00:00;414519;56.0468;56.0468
22.07.1997 00:00:00;414519;57.4609;57.4609
23.07.1997 00:00:00;414519;58.0930875;58.0930875
24.07.1997 00:00:00;414519;58.1303625;58.1303625
25.07.1997 00:00:00;414519;58.545175;58.545175
28.07.1997 00:00:00;414519;59.20834375;59.20834375
29.07.1997 00:00:00;414519;59.61221875;59.61221875
30.07.1997 00:00:00;414519;60.1034375;60.1034375
31.07.1997 00:00:00;414519;60.2304;60.2304
01.08.1997 00:00:00;414519;61.3573875;61.3573875
04.08.1997 00:00:00;414519;61.17328125;61.17328125
05.08.1997 00:00:00;414519;61.827775;61.827775
06.08.1997 00:00:00;414519;64.715;64.715
07.08.1997 00:00:00;414519;63.15575;63.15575
08.08.1997 00:00:00;414519;60.67884375;60.67884375
11.08.1997 00:00:00;414519;61.506025;61.506025
12.08.1997 00:00:00;414519;60.83025;60.83025
13.08.1997 00:00:00;414519;59.64069375;59.64069375
14.08.1997 00:00:00;414519;59.425875;59.425875
15.08.1997 00:00:00;414519;57.7344;57.7344
18.08.1997 00:00:00;414519;58.50984375;58.50984375
19.08.1997 00:00:00;414519;59.7708125;59.7708125
20.08.1997 00:00:00;414519;61.6395;61.6395
21.08.1997 00:00:00;414519;59.60871875;59.60871875
22.08.1997 00:00:00;414519;58.76215625;58.76215625
25.08.1997 00:00:00;414519;59.0095625;59.0095625
26.08.1997 00:00:00;414519;57.8277;57.8277
27.08.1997 00:00:00;414519;59.2194375;59.2194375
28.08.1997 00:00:00;414519;57.94965;57.94965
29.08.1997 00:00:00;414519;58.275;58.275
02.09.1997 00:00:00;414519;61.0024625;61.0024625
03.09.1997 00:00:00;414519;60.4170375;60.4170375
04.09.1997 00:00:00;414519;60.3005;60.3005
05.09.1997 00:00:00;414519;59.96598125;59.96598125
08.09.1997 00:00:00;414519;60.06;60.06
09.09.1997 00:00:00;414519;60.6483875;60.6483875
10.09.1997 00:00:00;414519;58.452075;58.452075
11.09.1997 00:00:00;414519;56.981925;56.981925
12.09.1997 00:00:00;414519;57.36745625;57.36745625
15.09.1997 00:00:00;414519;56.774625;56.774625
16.09.1997 00:00:00;414519;58.534;58.534
17.09.1997 00:00:00;414519;58.0224;58.0224
18.09.1997 00:00:00;414519;58.9044375;58.9044375
19.09.1997 00:00:00;414519;57.927375;57.927375
22.09.1997 00:00:00;414519;59.20455;59.20455
23.09.1997 00:00:00;414519;58.1082125;58.1082125
24.09.1997 00:00:00;414519;56.8074125;56.8074125
25.09.1997 00:00:00;414519;56.3059125;56.3059125
26.09.1997 00:00:00;414519;57.231675;57.231675
29.09.1997 00:00:00;414519;57.419625;57.419625
30.09.1997 00:00:00;414519;56.4689;56.4689
01.10.1997 00:00:00;414519;56.97721875;56.97721875
02.10.1997 00:00:00;414519;58.41259375;58.41259375
03.10.1997 00:00:00;414519;57.2295875;57.2295875
06.10.1997 00:00:00;414519;57.5066625;57.5066625
07.10.1997 00:00:00;414519;57.8694;57.8694
08.10.1997 00:00:00;414519;57.1288875;57.1288875
09.10.1997 00:00:00;414519;57.109725;57.109725
10.10.1997 00:00:00;414519;57.3341625;57.3341625
13.10.1997 00:00:00;414519;56.89479375;56.89479375
14.10.1997 00:00:00;414519;56.58525;56.58525
15.10.1997 00:00:00;414519;56.65725;56.65725
16.10.1997 00:00:00;414519;55.89959375;55.89959375
17.10.1997 00:00:00;414519;55.95785;55.95785
20.10.1997 00:00:00;414519;56.14634375;56.14634375
21.10.1997 00:00:00;414519;56.8630125;56.8630125
22.10.1997 00:00:00;414519;56.10190625;56.10190625
23.10.1997 00:00:00;414519;54.26646875;54.26646875
24.10.1997 00:00:00;414519;54.306625;54.306625
27.10.1997 00:00:00;414519;49.1788875;49.1788875
28.10.1997 00:00:00;414519;50.647025;50.647025
29.10.1997 00:00:00;414519;49.843125;49.843125
30.10.1997 00:00:00;414519;49.08853125;49.08853125
31.10.1997 00:00:00;414519;49.931925;49.931925
03.11.1997 00:00:00;414519;50.2591375;50.2591375
04.11.1997 00:00:00;414519;50.1771;50.1771
05.11.1997 00:00:00;414519;49.78351875;49.78351875
06.11.1997 00:00:00;414519;50.015875;50.015875
07.11.1997 00:00:00;414519;49.1946;49.1946
10.11.1997 00:00:00;414519;48.79428125;48.79428125
11.11.1997 00:00:00;414519;48.86384375;48.86384375
12.11.1997 00:00:00;414519;47.8051;47.8051
13.11.1997 00:00:00;414519;47.22889375;47.22889375
14.11.1997 00:00:00;414519;47.763;47.763
17.11.1997 00:00:00;414519;48.49755;48.49755
18.11.1997 00:00:00;414519;48.609175;48.609175
19.11.1997 00:00:00;414519;48.6357125;48.6357125
20.11.1997 00:00:00;414519;49.27845;49.27845
21.11.1997 00:00:00;414519;50.0129875;50.0129875
24.11.1997 00:00:00;414519;49.7504;49.7504
25.11.1997 00:00:00;414519;50.7154375;50.7154375
26.11.1997 00:00:00;414519;51.525;51.525
28.11.1997 00:00:00;414519;52.30018125;52.30018125
01.12.1997 00:00:00;414519;53.517375;53.517375
02.12.1997 00:00:00;414519;54.05296875;54.05296875
03.12.1997 00:00:00;414519;53.3596;53.3596
04.12.1997 00:00:00;414519;52.2071875;52.2071875
05.12.1997 00:00:00;414519;53.0088125;53.0088125
08.12.1997 00:00:00;414519;52.86953125;52.86953125
09.12.1997 00:00:00;414519;52.57275625;52.57275625
10.12.1997 00:00:00;414519;51.9156125;51.9156125
11.12.1997 00:00:00;414519;50.9178;50.9178
12.12.1997 00:00:00;414519;51.23996875;51.23996875
15.12.1997 00:00:00;414519;51.6933;51.6933
16.12.1997 00:00:00;414519;51.738975;51.738975
17.12.1997 00:00:00;414519;51.98175;51.98175
18.12.1997 00:00:00;414519;51.44925;51.44925
19.12.1997 00:00:00;414519;50.6451;50.6451
22.12.1997 00:00:00;414519;51.04490625;51.04490625
23.12.1997 00:00:00;414519;50.837475;50.837475
24.12.1997 00:00:00;414519;50.764;50.764
26.12.1997 00:00:00;414519;50.8885375;50.8885375
29.12.1997 00:00:00;414519;51.80670625;51.80670625
30.12.1997 00:00:00;414519;53.52165;53.52165
31.12.1997 00:00:00;414519;52.5150125;52.5150125
02.01.1998 00:00:00;414519;53.0495;53.0495
05.01.1998 00:00:00;414519;54.22370625;54.22370625
06.01.1998 00:00:00;414519;54.02434375;54.02434375
07.01.1998 00:00:00;414519;53.694975;53.694975
08.01.1998 00:00:00;414519;52.84825;52.84825
09.01.1998 00:00:00;414519;50.468775;50.468775
12.01.1998 00:00:00;414519;50.4959;50.4959
13.01.1998 00:00:00;414519;49.59661875;49.59661875
14.01.1998 00:00:00;414519;50.7248625;50.7248625
15.01.1998 00:00:00;414519;51.68309375;51.68309375
16.01.1998 00:00:00;414519;52.589125;52.589125
20.01.1998 00:00:00;414519;54.0070875;54.0070875
21.01.1998 00:00:00;414519;53.0328;53.0328
22.01.1998 00:00:00;414519;52.19021875;52.19021875
23.01.1998 00:00:00;414519;49.503;49.503
26.01.1998 00:00:00;414519;51.3352;51.3352
27.01.1998 00:00:00;414519;52.26354375;52.26354375
28.01.1998 00:00:00;414519;52.34415;52.34415
29.01.1998 00:00:00;414519;52.92505;52.92505
30.01.1998 00:00:00;414519;53.6743125;53.6743125
02.02.1998 00:00:00;414519;54.9803375;54.9803375
03.02.1998 00:00:00;414519;54.76865625;54.76865625
04.02.1998 00:00:00;414519;54.9086625;54.9086625
05.02.1998 00:00:00;414519;54.689825;54.689825
06.02.1998 00:00:00;414519;56.8506;56.8506
09.02.1998 00:00:00;414519;56.3352375;56.3352375
10.02.1998 00:00:00;414519;55.72760625;55.72760625
11.02.1998 00:00:00;414519;56.5191375;56.5191375
12.02.1998 00:00:00;414519;56.7534625;56.7534625
13.02.1998 00:00:00;414519;56.26126875;56.26126875
17.02.1998 00:00:00;414519;56.9923;56.9923
18.02.1998 00:00:00;414519;57.5870625;57.5870625
19.02.1998 00:00:00;414519;57.051225;57.051225
20.02.1998 00:00:00;414519;57.784;57.784
23.02.1998 00:00:00;414519;57.479;57.479
24.02.1998 00:00:00;414519;58.4902125;58.4902125
25.02.1998 00:00:00;414519;58.5522;58.5522
26.02.1998 00:00:00;414519;60.60715;60.60715
27.02.1998 00:00:00;414519;60.19785;60.19785
02.03.1998 00:00:00;414519;59.7077875;59.7077875
03.03.1998 00:00:00;414519;60.0931625;60.0931625
04.03.1998 00:00:00;414519;60.5591875;60.5591875
05.03.1998 00:00:00;414519;61.015275;61.015275
06.03.1998 00:00:00;414519;61.32765;61.32765
09.03.1998 00:00:00;414519;61.015275;61.015275
10.03.1998 00:00:00;414519;61.30185;61.30185
11.03.1998 00:00:00;414519;61.32765;61.32765
12.03.1998 00:00:00;414519;61.11208125;61.11208125
13.03.1998 00:00:00;414519;59.88825;59.88825
16.03.1998 00:00:00;414519;62.260625;62.260625
17.03.1998 00:00:00;414519;60.9746625;60.9746625
18.03.1998 00:00:00;414519;61.76183125;61.76183125
19.03.1998 00:00:00;414519;62.4061625;62.4061625
20.03.1998 00:00:00;414519;62.3809875;62.3809875
23.03.1998 00:00:00;414519;63.0585;63.0585
24.03.1998 00:00:00;414519;63.26750625;63.26750625
25.03.1998 00:00:00;414519;63.624825;63.624825
26.03.1998 00:00:00;414519;63.1848375;63.1848375
27.03.1998 00:00:00;414519;62.6115;62.6115
30.03.1998 00:00:00;414519;62.7302875;62.7302875
31.03.1998 00:00:00;414519;64.2417;64.2417
01.04.1998 00:00:00;414519;65.13375;65.13375
02.04.1998 00:00:00;414519;65.4406375;65.4406375
03.04.1998 00:00:00;414519;65.11726875;65.11726875
06.04.1998 00:00:00;414519;63.82965;63.82965
07.04.1998 00:00:00;414519;64.49275;64.49275
08.04.1998 00:00:00;414519;63.35984375;63.35984375
09.04.1998 00:00:00;414519;64.492525;64.492525
13.04.1998 00:00:00;414519;63.8283;63.8283
14.04.1998 00:00:00;414519;64.7705;64.7705
15.04.1998 00:00:00;414519;64.90935;64.90935
16.04.1998 00:00:00;414519;65.0983375;65.0983375
17.04.1998 00:00:00;414519;67.4958;67.4958
20.04.1998 00:00:00;414519;67.39836875;67.39836875
21.04.1998 00:00:00;414519;66.884575;66.884575
22.04.1998 00:00:00;414519;67.298125;67.298125
23.04.1998 00:00:00;414519;65.981175;65.981175
24.04.1998 00:00:00;414519;64.49961875;64.49961875
27.04.1998 00:00:00;414519;64.10224375;64.10224375
28.04.1998 00:00:00;414519;64.77725;64.77725
29.04.1998 00:00:00;414519;64.7038875;64.7038875
30.04.1998 00:00:00;414519;64.89819375;64.89819375
01.05.1998 00:00:00;414519;64.93003125;64.93003125
04.05.1998 00:00:00;414519;65.25713125;65.25713125
05.05.1998 00:00:00;414519;65.046875;65.046875
06.05.1998 00:00:00;414519;63.53455;63.53455
07.05.1998 00:00:00;414519;63.3579375;63.3579375
08.05.1998 00:00:00;414519;64.85709375;64.85709375
11.05.1998 00:00:00;414519;65.653575;65.653575
12.05.1998 00:00:00;414519;68.25175;68.25175
13.05.1998 00:00:00;414519;69.39095625;69.39095625
14.05.1998 00:00:00;414519;69.1524;69.1524
15.05.1998 00:00:00;414519;69.22439375;69.22439375
18.05.1998 00:00:00;414519;69.01123125;69.01123125
19.05.1998 00:00:00;414519;69.4869;69.4869
20.05.1998 00:00:00;414519;68.4294;68.4294
21.05.1998 00:00:00;414519;67.75041875;67.75041875
22.05.1998 00:00:00;414519;67.627175;67.627175
26.05.1998 00:00:00;414519;66.58141875;66.58141875
27.05.1998 00:00:00;414519;66.05575625;66.05575625
28.05.1998 00:00:00;414519;66.87765;66.87765
29.05.1998 00:00:00;414519;66.4984375;66.4984375
01.06.1998 00:00:00;414519;66.5989;66.5989
02.06.1998 00:00:00;414519;67.4315125;67.4315125
03.06.1998 00:00:00;414519;66.856875;66.856875
04.06.1998 00:00:00;414519;65.98585;65.98585
05.06.1998 00:00:00;414519;68.055;68.055
08.06.1998 00:00:00;414519;68.091325;68.091325
09.06.1998 00:00:00;414519;68.28;68.28
10.06.1998 00:00:00;414519;66.1105625;66.1105625
11.06.1998 00:00:00;414519;66.246775;66.246775
12.06.1998 00:00:00;414519;64.89140625;64.89140625
15.06.1998 00:00:00;414519;64.1272625;64.1272625
16.06.1998 00:00:00;414519;64.107225;64.107225
17.06.1998 00:00:00;414519;63.5091;63.5091
18.06.1998 00:00:00;414519;63.61305;63.61305
19.06.1998 00:00:00;414519;59.8277;59.8277
22.06.1998 00:00:00;414519;58.3823;58.3823
23.06.1998 00:00:00;414519;60.60673125;60.60673125
24.06.1998 00:00:00;414519;61.14465;61.14465
25.06.1998 00:00:00;414519;60.5701875;60.5701875
26.06.1998 00:00:00;414519;61.8906;61.8906
29.06.1998 00:00:00;414519;62.1224;62.1224
30.06.1998 00:00:00;414519;64.1783625;64.1783625
01.07.1998 00:00:00;414519;65.079;65.079
02.07.1998 00:00:00;414519;65.177;65.177
06.07.1998 00:00:00;414519;65.3394;65.3394
07.07.1998 00:00:00;414519;64.9759625;64.9759625
08.07.1998 00:00:00;414519;65.1952125;65.1952125
09.07.1998 00:00:00;414519;63.5487375;63.5487375
10.07.1998 00:00:00;414519;63.4007375;63.4007375
13.07.1998 00:00:00;414519;62.5464;62.5464
14.07.1998 00:00:00;414519;64.2936875;64.2936875
15.07.1998 00:00:00;414519;64.47;64.47
16.07.1998 00:00:00;414519;62.92;62.92
17.07.1998 00:00:00;414519;61.1308;61.1308
20.07.1998 00:00:00;414519;61.5465;61.5465
21.07.1998 00:00:00;414519;61.6413875;61.6413875
22.07.1998 00:00:00;414519;61.029525;61.029525
23.07.1998 00:00:00;414519;59.72828125;59.72828125
24.07.1998 00:00:00;414519;59.55915;59.55915
27.07.1998 00:00:00;414519;59.045525;59.045525
28.07.1998 00:00:00;414519;58.74895625;58.74895625
29.07.1998 00:00:00;414519;58.14745625;58.14745625
30.07.1998 00:00:00;414519;59.79305;59.79305
31.07.1998 00:00:00;414519;57.6649125;57.6649125
03.08.1998 00:00:00;414519;57.4497;57.4497
04.08.1998 00:00:00;414519;56.14634375;56.14634375
05.08.1998 00:00:00;414519;54.95253125;54.95253125
06.08.1998 00:00:00;414519;55.2997875;55.2997875
07.08.1998 00:00:00;414519;56.211025;56.211025
10.08.1998 00:00:00;414519;55.3028875;55.3028875
11.08.1998 00:00:00;414519;53.9981;53.9981
12.08.1998 00:00:00;414519;54.529875;54.529875
13.08.1998 00:00:00;414519;53.92996875;53.92996875
14.08.1998 00:00:00;414519;52.1043;52.1043
17.08.1998 00:00:00;414519;53.862;53.862
18.08.1998 00:00:00;414519;54.77963125;54.77963125
19.08.1998 00:00:00;414519;54.97366875;54.97366875
20.08.1998 00:00:00;414519;54.5240625;54.5240625
21.08.1998 00:00:00;414519;52.704675;52.704675
24.08.1998 00:00:00;414519;52.38908125;52.38908125
25.08.1998 00:00:00;414519;53.003475;53.003475
26.08.1998 00:00:00;414519;53.441775;53.441775
27.08.1998 00:00:00;414519;50.8056125;50.8056125
28.08.1998 00:00:00;414519;48.45296875;48.45296875
31.08.1998 00:00:00;414519;45.7210875;45.7210875
01.09.1998 00:00:00;414519;46.56990625;46.56990625
02.09.1998 00:00:00;414519;46.2309375;46.2309375
03.09.1998 00:00:00;414519;46.86556875;46.86556875
04.09.1998 00:00:00;414519;46.64424375;46.64424375
08.09.1998 00:00:00;414519;48.233875;48.233875
09.09.1998 00:00:00;414519;47.4477125;47.4477125
10.09.1998 00:00:00;414519;43.45525;43.45525
11.09.1998 00:00:00;414519;45.40725;45.40725
14.09.1998 00:00:00;414519;46.85550625;46.85550625
15.09.1998 00:00:00;414519;47.8495375;47.8495375
16.09.1998 00:00:00;414519;47.15920625;47.15920625
17.09.1998 00:00:00;414519;45.6152625;45.6152625
18.09.1998 00:00:00;414519;44.9578125;44.9578125
21.09.1998 00:00:00;414519;44.7841625;44.7841625
22.09.1998 00:00:00;414519;44.7564;44.7564
23.09.1998 00:00:00;414519;45.80355;45.80355
24.09.1998 00:00:00;414519;45.3097;45.3097
25.09.1998 00:00:00;414519;45.1575125;45.1575125
28.09.1998 00:00:00;414519;47.6094375;47.6094375
29.09.1998 00:00:00;414519;48.482325;48.482325
30.09.1998 00:00:00;414519;46.60183125;46.60183125
01.10.1998 00:00:00;414519;44.093775;44.093775
02.10.1998 00:00:00;414519;44.29945;44.29945
05.10.1998 00:00:00;414519;43.9513;43.9513
06.10.1998 00:00:00;414519;44.0969375;44.0969375
07.10.1998 00:00:00;414519;44.523;44.523
08.10.1998 00:00:00;414519;43.4461125;43.4461125
09.10.1998 00:00:00;414519;47.31875;47.31875
12.10.1998 00:00:00;414519;46.74459375;46.74459375
13.10.1998 00:00:00;414519;45.5030125;45.5030125
14.10.1998 00:00:00;414519;45.2119;45.2119
15.10.1998 00:00:00;414519;49.95;49.95
16.10.1998 00:00:00;414519;49.627175;49.627175
19.10.1998 00:00:00;414519;50.6784375;50.6784375
20.10.1998 00:00:00;414519;50.17805;50.17805
21.10.1998 00:00:00;414519;48.7596875;48.7596875
22.10.1998 00:00:00;414519;47.49705;47.49705
23.10.1998 00:00:00;414519;47.06265;47.06265
26.10.1998 00:00:00;414519;46.9137;46.9137
27.10.1998 00:00:00;414519;45.89365625;45.89365625
28.10.1998 00:00:00;414519;45.1130375;45.1130375
29.10.1998 00:00:00;414519;46.77778125;46.77778125
30.10.1998 00:00:00;414519;48.4378125;48.4378125
02.11.1998 00:00:00;414519;49.73185;49.73185
03.11.1998 00:00:00;414519;50.385625;50.385625
04.11.1998 00:00:00;414519;50.860125;50.860125
05.11.1998 00:00:00;414519;52.607;52.607
06.11.1998 00:00:00;414519;52.65015;52.65015
09.11.1998 00:00:00;414519;51.935975;51.935975
10.11.1998 00:00:00;414519;50.4925875;50.4925875
11.11.1998 00:00:00;414519;49.7698;49.7698
12.11.1998 00:00:00;414519;50.3250875;50.3250875
13.11.1998 00:00:00;414519;50.841;50.841
16.11.1998 00:00:00;414519;51.61966875;51.61966875
17.11.1998 00:00:00;414519;51.6428;51.6428
18.11.1998 00:00:00;414519;52.11375;52.11375
19.11.1998 00:00:00;414519;52.4428125;52.4428125
20.11.1998 00:00:00;414519;52.82516875;52.82516875
23.11.1998 00:00:00;414519;54.4669125;54.4669125
24.11.1998 00:00:00;414519;53.90775;53.90775
25.11.1998 00:00:00;414519;54.188625;54.188625
27.11.1998 00:00:00;414519;54.37295625;54.37295625
30.11.1998 00:00:00;414519;53.06791875;53.06791875
01.12.1998 00:00:00;414519;52.2865875;52.2865875
02.12.1998 00:00:00;414519;51.3227;51.3227
03.12.1998 00:00:00;414519;50.741875;50.741875
04.12.1998 00:00:00;414519;51.199775;51.199775
07.12.1998 00:00:00;414519;52.82495;52.82495
08.12.1998 00:00:00;414519;50.99103125;50.99103125
09.12.1998 00:00:00;414519;49.41489375;49.41489375
10.12.1998 00:00:00;414519;49.26785;49.26785
11.12.1998 00:00:00;414519;48.22621875;48.22621875
14.12.1998 00:00:00;414519;47.8944375;47.8944375
15.12.1998 00:00:00;414519;47.22025;47.22025
16.12.1998 00:00:00;414519;47.1306;47.1306
17.12.1998 00:00:00;414519;48.96841875;48.96841875
18.12.1998 00:00:00;414519;47.40435;47.40435
21.12.1998 00:00:00;414519;48.07585;48.07585
22.12.1998 00:00:00;414519;47.6128125;47.6128125
23.12.1998 00:00:00;414519;49.6678125;49.6678125
24.12.1998 00:00:00;414519;50.34800625;50.34800625
28.12.1998 00:00:00;414519;49.7262;49.7262
29.12.1998 00:00:00;414519;51.18155625;51.18155625
30.12.1998 00:00:00;414519;50.27925;50.27925
31.12.1998 00:00:00;414519;49.92025;49.92025
04.01.1999 00:00:00;414519;50.7261;50.7261
05.01.1999 00:00:00;414519;51.55075625;51.55075625
06.01.1999 00:00:00;414519;52.8178;52.8178
07.01.1999 00:00:00;414519;52.34888125;52.34888125
08.01.1999 00:00:00;414519;54.5211;54.5211
11.01.1999 00:00:00;414519;53.5928;53.5928
12.01.1999 00:00:00;414519;52.7195;52.7195
13.01.1999 00:00:00;414519;49.94565;49.94565
14.01.1999 00:00:00;414519;49.5495;49.5495
15.01.1999 00:00:00;414519;50.1696;50.1696
19.01.1999 00:00:00;414519;50.0979375;50.0979375
20.01.1999 00:00:00;414519;48.8813125;48.8813125
21.01.1999 00:00:00;414519;49.2423;49.2423
22.01.1999 00:00:00;414519;47.937625;47.937625
25.01.1999 00:00:00;414519;47.8425625;47.8425625
26.01.1999 00:00:00;414519;47.5365;47.5365
27.01.1999 00:00:00;414519;47.00215;47.00215
28.01.1999 00:00:00;414519;47.37496875;47.37496875
29.01.1999 00:00:00;414519;47.208625;47.208625
01.02.1999 00:00:00;414519;47.1549;47.1549
02.02.1999 00:00:00;414519;47.2066875;47.2066875
03.02.1999 00:00:00;414519;46.8117375;46.8117375
04.02.1999 00:00:00;414519;46.9845;46.9845
05.02.1999 00:00:00;414519;48.365625;48.365625
08.02.1999 00:00:00;414519;48.583475;48.583475
09.02.1999 00:00:00;414519;48.10641875;48.10641875
10.02.1999 00:00:00;414519;47.814025;47.814025
11.02.1999 00:00:00;414519;48.55925625;48.55925625
12.02.1999 00:00:00;414519;48.3665625;48.3665625
16.02.1999 00:00:00;414519;47.610825;47.610825
17.02.1999 00:00:00;414519;46.401675;46.401675
18.02.1999 00:00:00;414519;45.152275;45.152275
19.02.1999 00:00:00;414519;45.60434375;45.60434375
22.02.1999 00:00:00;414519;46.71039375;46.71039375
23.02.1999 00:00:00;414519;47.59914375;47.59914375
24.02.1999 00:00:00;414519;47.7286125;47.7286125
25.02.1999 00:00:00;414519;47.07095625;47.07095625
26.02.1999 00:00:00;414519;47.293575;47.293575
01.03.1999 00:00:00;414519;46.94765625;46.94765625
02.03.1999 00:00:00;414519;47.31305;47.31305
03.03.1999 00:00:00;414519;46.5747375;46.5747375
04.03.1999 00:00:00;414519;47.73485625;47.73485625
05.03.1999 00:00:00;414519;49.2758;49.2758
08.03.1999 00:00:00;414519;48.3882;48.3882
09.03.1999 00:00:00;414519;48.3886875;48.3886875
10.03.1999 00:00:00;414519;48.981075;48.981075
11.03.1999 00:00:00;414519;47.7204;47.7204
12.03.1999 00:00:00;414519;48.6040625;48.6040625
15.03.1999 00:00:00;414519;48.50443125;48.50443125
16.03.1999 00:00:00;414519;48.3469875;48.3469875
17.03.1999 00:00:00;414519;46.5595375;46.5595375
18.03.1999 00:00:00;414519;47.17483125;47.17483125
19.03.1999 00:00:00;414519;46.73750625;46.73750625
22.03.1999 00:00:00;414519;46.8894;46.8894
23.03.1999 00:00:00;414519;45.613125;45.613125
24.03.1999 00:00:00;414519;45.5511;45.5511
25.03.1999 00:00:00;414519;46.9060125;46.9060125
26.03.1999 00:00:00;414519;46.6822;46.6822
29.03.1999 00:00:00;414519;48.459775;48.459775
30.03.1999 00:00:00;414519;48.4744;48.4744
31.03.1999 00:00:00;414519;47.7445;47.7445
01.04.1999 00:00:00;414519;46.37695625;46.37695625
05.04.1999 00:00:00;414519;47.43;47.43
06.04.1999 00:00:00;414519;46.43023125;46.43023125
07.04.1999 00:00:00;414519;46.2191625;46.2191625
08.04.1999 00:00:00;414519;46.385675;46.385675
09.04.1999 00:00:00;414519;44.58758125;44.58758125
12.04.1999 00:00:00;414519;45.52375;45.52375
13.04.1999 00:00:00;414519;47.0828625;47.0828625
14.04.1999 00:00:00;414519;49.9353375;49.9353375
15.04.1999 00:00:00;414519;54.6989;54.6989
16.04.1999 00:00:00;414519;54.85549375;54.85549375
19.04.1999 00:00:00;414519;58.620025;58.620025
20.04.1999 00:00:00;414519;56.80345;56.80345
21.04.1999 00:00:00;414519;56.2084875;56.2084875
22.04.1999 00:00:00;414519;54.8708125;54.8708125
23.04.1999 00:00:00;414519;55.9768375;55.9768375
26.04.1999 00:00:00;414519;55.7783;55.7783
27.04.1999 00:00:00;414519;55.95975;55.95975
28.04.1999 00:00:00;414519;58.001625;58.001625
29.04.1999 00:00:00;414519;61.282;61.282
30.04.1999 00:00:00;414519;61.301;61.301
03.05.1999 00:00:00;414519;64.54165;64.54165
04.05.1999 00:00:00;414519;62.9806125;62.9806125
05.05.1999 00:00:00;414519;63.139125;63.139125
06.05.1999 00:00:00;414519;64.2343125;64.2343125
07.05.1999 00:00:00;414519;64.3685625;64.3685625
10.05.1999 00:00:00;414519;64.2666;64.2666
11.05.1999 00:00:00;414519;63.8281125;63.8281125
12.05.1999 00:00:00;414519;64.8323375;64.8323375
13.05.1999 00:00:00;414519;65.48534375;65.48534375
14.05.1999 00:00:00;414519;65.046;65.046
17.05.1999 00:00:00;414519;63.5224;63.5224
18.05.1999 00:00:00;414519;61.81468125;61.81468125
19.05.1999 00:00:00;414519;61.2632125;61.2632125
20.05.1999 00:00:00;414519;60.31699375;60.31699375
21.05.1999 00:00:00;414519;60.14010625;60.14010625
24.05.1999 00:00:00;414519;60.0456;60.0456
25.05.1999 00:00:00;414519;59.72640625;59.72640625
26.05.1999 00:00:00;414519;59.1003125;59.1003125
27.05.1999 00:00:00;414519;58.0658;58.0658
28.05.1999 00:00:00;414519;58.03545625;58.03545625
01.06.1999 00:00:00;414519;60.823875;60.823875
02.06.1999 00:00:00;414519;60.48716875;60.48716875
03.06.1999 00:00:00;414519;60.7887;60.7887
04.06.1999 00:00:00;414519;62.214075;62.214075
07.06.1999 00:00:00;414519;61.76368125;61.76368125
08.06.1999 00:00:00;414519;60.596225;60.596225
09.06.1999 00:00:00;414519;58.5074875;58.5074875
10.06.1999 00:00:00;414519;58.89305625;58.89305625
11.06.1999 00:00:00;414519;58.7101375;58.7101375
14.06.1999 00:00:00;414519;61.42101875;61.42101875
15.06.1999 00:00:00;414519;61.6690125;61.6690125
16.06.1999 00:00:00;414519;61.90359375;61.90359375
17.06.1999 00:00:00;414519;61.40115625;61.40115625
18.06.1999 00:00:00;414519;61.5188;61.5188
21.06.1999 00:00:00;414519;60.29589375;60.29589375
22.06.1999 00:00:00;414519;59.71966875;59.71966875
23.06.1999 00:00:00;414519;62.1278125;62.1278125
24.06.1999 00:00:00;414519;59.71225;59.71225
25.06.1999 00:00:00;414519;59.04110625;59.04110625
28.06.1999 00:00:00;414519;59.22928125;59.22928125
29.06.1999 00:00:00;414519;58.7692;58.7692
30.06.1999 00:00:00;414519;57.20203125;57.20203125
01.07.1999 00:00:00;414519;58.044;58.044
02.07.1999 00:00:00;414519;59.425975;59.425975
06.07.1999 00:00:00;414519;58.67281875;58.67281875
07.07.1999 00:00:00;414519;58.65;58.65
08.07.1999 00:00:00;414519;59.1414;59.1414
09.07.1999 00:00:00;414519;60.2456125;60.2456125
12.07.1999 00:00:00;414519;59.86215;59.86215
13.07.1999 00:00:00;414519;59.4029625;59.4029625
14.07.1999 00:00:00;414519;58.2546;58.2546
15.07.1999 00:00:00;414519;58.966675;58.966675
16.07.1999 00:00:00;414519;60.159775;60.159775
19.07.1999 00:00:00;414519;59.81966875;59.81966875
20.07.1999 00:00:00;414519;58.01473125;58.01473125
21.07.1999 00:00:00;414519;56.9955375;56.9955375
22.07.1999 00:00:00;414519;58.274975;58.274975
23.07.1999 00:00:00;414519;56.5428125;56.5428125
26.07.1999 00:00:00;414519;56.52208125;56.52208125
27.07.1999 00:00:00;414519;56.6123625;56.6123625
28.07.1999 00:00:00;414519;56.9789;56.9789
29.07.1999 00:00:00;414519;56.043;56.043
30.07.1999 00:00:00;414519;55.7553375;55.7553375
02.08.1999 00:00:00;414519;57.3108;57.3108
03.08.1999 00:00:00;414519;57.30715625;57.30715625
04.08.1999 00:00:00;414519;57.06315;57.06315
05.08.1999 00:00:00;414519;57.5960875;57.5960875
06.08.1999 00:00:00;414519;58.413975;58.413975
09.08.1999 00:00:00;414519;58.5669;58.5669
10.08.1999 00:00:00;414519;57.11259375;57.11259375
11.08.1999 00:00:00;414519;59.21465;59.21465
12.08.1999 00:00:00;414519;58.3511625;58.3511625
13.08.1999 00:00:00;414519;58.4242;58.4242
16.08.1999 00:00:00;414519;58.7640375;58.7640375
17.08.1999 00:00:00;414519;59.95351875;59.95351875
18.08.1999 00:00:00;414519;59.87784375;59.87784375
19.08.1999 00:00:00;414519;60.1342125;60.1342125
20.08.1999 00:00:00;414519;61.5365625;61.5365625
23.08.1999 00:00:00;414519;63.0202;63.0202
24.08.1999 00:00:00;414519;61.69501875;61.69501875
25.08.1999 00:00:00;414519;61.20736875;61.20736875
26.08.1999 00:00:00;414519;60.2153875;60.2153875
27.08.1999 00:00:00;414519;60.19971875;60.19971875
30.08.1999 00:00:00;414519;58.7711125;58.7711125
31.08.1999 00:00:00;414519;56.98129375;56.98129375
01.09.1999 00:00:00;414519;57.68145625;57.68145625
02.09.1999 00:00:00;414519;58.5015125;58.5015125
03.09.1999 00:00:00;414519;59.14981875;59.14981875
07.09.1999 00:00:00;414519;59.878775;59.878775
08.09.1999 00:00:00;414519;60.023825;60.023825
09.09.1999 00:00:00;414519;59.4255875;59.4255875
10.09.1999 00:00:00;414519;60.97005;60.97005
13.09.1999 00:00:00;414519;62.4967;62.4967
14.09.1999 00:00:00;414519;61.156875;61.156875
15.09.1999 00:00:00;414519;60.79133125;60.79133125
16.09.1999 00:00:00;414519;60.1125;60.1125
17.09.1999 00:00:00;414519;59.84925;59.84925
20.09.1999 00:00:00;414519;60.55891875;60.55891875
21.09.1999 00:00:00;414519;59.16;59.16
22.09.1999 00:00:00;414519;57.7089375;57.7089375
23.09.1999 00:00:00;414519;56.8634375;56.8634375
24.09.1999 00:00:00;414519;55.796125;55.796125
27.09.1999 00:00:00;414519;56.4925;56.4925
28.09.1999 00:00:00;414519;54.93189375;54.93189375
29.09.1999 00:00:00;414519;55.215175;55.215175
30.09.1999 00:00:00;414519;56.334;56.334
01.10.1999 00:00:00;414519;55.7811375;55.7811375
04.10.1999 00:00:00;414519;56.9252;56.9252
05.10.1999 00:00:00;414519;55.95459375;55.95459375
06.10.1999 00:00:00;414519;55.29704375;55.29704375
07.10.1999 00:00:00;414519;57.2997;57.2997
08.10.1999 00:00:00;414519;58.307;58.307
11.10.1999 00:00:00;414519;57.20631875;57.20631875
12.10.1999 00:00:00;414519;56.20339375;56.20339375
13.10.1999 00:00:00;414519;54.2650625;54.2650625
14.10.1999 00:00:00;414519;53.9225625;53.9225625
15.10.1999 00:00:00;414519;52.4742;52.4742
18.10.1999 00:00:00;414519;53.785875;53.785875
19.10.1999 00:00:00;414519;53.326325;53.326325
20.10.1999 00:00:00;414519;52.8732;52.8732
21.10.1999 00:00:00;414519;53.000575;53.000575
22.10.1999 00:00:00;414519;53.29625625;53.29625625
25.10.1999 00:00:00;414519;54.562775;54.562775
26.10.1999 00:00:00;414519;55.01925;55.01925
27.10.1999 00:00:00;414519;55.9263375;55.9263375
28.10.1999 00:00:00;414519;56.9531;56.9531
29.10.1999 00:00:00;414519;57.6846875;57.6846875
01.11.1999 00:00:00;414519;56.660925;56.660925
02.11.1999 00:00:00;414519;56.1684375;56.1684375
03.11.1999 00:00:00;414519;56.8583125;56.8583125
04.11.1999 00:00:00;414519;57.59775;57.59775
05.11.1999 00:00:00;414519;57.990625;57.990625
08.11.1999 00:00:00;414519;56.40455625;56.40455625
09.11.1999 00:00:00;414519;56.4221625;56.4221625
10.11.1999 00:00:00;414519;56.6389375;56.6389375
11.11.1999 00:00:00;414519;56.723625;56.723625
12.11.1999 00:00:00;414519;57.194025;57.194025
15.11.1999 00:00:00;414519;58.3032125;58.3032125
16.11.1999 00:00:00;414519;57.995525;57.995525
17.11.1999 00:00:00;414519;58.14655;58.14655
18.11.1999 00:00:00;414519;57.6478875;57.6478875
19.11.1999 00:00:00;414519;58.3453;58.3453
22.11.1999 00:00:00;414519;57.5759375;57.5759375
23.11.1999 00:00:00;414519;56.1213875;56.1213875
24.11.1999 00:00:00;414519;57.1168125;57.1168125
26.11.1999 00:00:00;414519;57.02625;57.02625
29.11.1999 00:00:00;414519;56.625975;56.625975
30.11.1999 00:00:00;414519;58.070575;58.070575
01.12.1999 00:00:00;414519;57.280625;57.280625
02.12.1999 00:00:00;414519;58.6519;58.6519
03.12.1999 00:00:00;414519;60.2280625;60.2280625
06.12.1999 00:00:00;414519;57.57846875;57.57846875
07.12.1999 00:00:00;414519;55.62375;55.62375
08.12.1999 00:00:00;414519;55.742575;55.742575
09.12.1999 00:00:00;414519;54.89079375;54.89079375
10.12.1999 00:00:00;414519;56.22368125;56.22368125
13.12.1999 00:00:00;414519;56.73101875;56.73101875
14.12.1999 00:00:00;414519;58.646;58.646
15.12.1999 00:00:00;414519;58.73121875;58.73121875
16.12.1999 00:00:00;414519;58.40865;58.40865
17.12.1999 00:00:00;414519;57.999825;57.999825
20.12.1999 00:00:00;414519;57.84016875;57.84016875
21.12.1999 00:00:00;414519;57.330975;57.330975
22.12.1999 00:00:00;414519;57.60380625;57.60380625
23.12.1999 00:00:00;414519;58.89661875;58.89661875
27.12.1999 00:00:00;414519;59.120575;59.120575
28.12.1999 00:00:00;414519;60.848525;60.848525
29.12.1999 00:00:00;414519;62.01916875;62.01916875
30.12.1999 00:00:00;414519;61.994775;61.994775
31.12.1999 00:00:00;414519;62.30599375;62.30599375
03.01.2000 00:00:00;414519;59.118;59.118
04.01.2000 00:00:00;414519;56.2109625;56.2109625
05.01.2000 00:00:00;414519;58.237075;58.237075
06.01.2000 00:00:00;414519;61.0281;61.0281
07.01.2000 00:00:00;414519;62.2846125;62.2846125
10.01.2000 00:00:00;414519;60.60915;60.60915
11.01.2000 00:00:00;414519;59.956875;59.956875
12.01.2000 00:00:00;414519;61.0914375;61.0914375
13.01.2000 00:00:00;414519;62.6948125;62.6948125
14.01.2000 00:00:00;414519;62.1747;62.1747
18.01.2000 00:00:00;414519;60.76815;60.76815
19.01.2000 00:00:00;414519;59.637;59.637
20.01.2000 00:00:00;414519;57.1168375;57.1168375
21.01.2000 00:00:00;414519;58.120825;58.120825
24.01.2000 00:00:00;414519;57.7622;57.7622
25.01.2000 00:00:00;414519;56.3249375;56.3249375
26.01.2000 00:00:00;414519;57.4030375;57.4030375
27.01.2000 00:00:00;414519;58.776;58.776
28.01.2000 00:00:00;414519;58.05366875;58.05366875
31.01.2000 00:00:00;414519;56.43355625;56.43355625
01.02.2000 00:00:00;414519;57.62664375;57.62664375
02.02.2000 00:00:00;414519;56.3950125;56.3950125
03.02.2000 00:00:00;414519;56.146125;56.146125
04.02.2000 00:00:00;414519;55.44109375;55.44109375
07.02.2000 00:00:00;414519;53.49999375;53.49999375
08.02.2000 00:00:00;414519;52.5960625;52.5960625
09.02.2000 00:00:00;414519;51.4488;51.4488
10.02.2000 00:00:00;414519;51.20195;51.20195
11.02.2000 00:00:00;414519;49.35406875;49.35406875
14.02.2000 00:00:00;414519;51.7539375;51.7539375
15.02.2000 00:00:00;414519;53.38725;53.38725
16.02.2000 00:00:00;414519;53.720875;53.720875
17.02.2000 00:00:00;414519;53.2665;53.2665
18.02.2000 00:00:00;414519;51.83865;51.83865
22.02.2000 00:00:00;414519;52.2882;52.2882
23.02.2000 00:00:00;414519;53.257575;53.257575
24.02.2000 00:00:00;414519;50.586675;50.586675
25.02.2000 00:00:00;414519;50.21546875;50.21546875
28.02.2000 00:00:00;414519;50.691375;50.691375
29.02.2000 00:00:00;414519;51.1870625;51.1870625
01.03.2000 00:00:00;414519;49.83434375;49.83434375
02.03.2000 00:00:00;414519;48.9346;48.9346
03.03.2000 00:00:00;414519;50.848375;50.848375
06.03.2000 00:00:00;414519;49.7472;49.7472
07.03.2000 00:00:00;414519;48.1926;48.1926
08.03.2000 00:00:00;414519;48.14913125;48.14913125
09.03.2000 00:00:00;414519;47.1215;47.1215
10.03.2000 00:00:00;414519;48.3775875;48.3775875
13.03.2000 00:00:00;414519;47.58665625;47.58665625
14.03.2000 00:00:00;414519;47.702;47.702
15.03.2000 00:00:00;414519;51.773425;51.773425
16.03.2000 00:00:00;414519;54.37575;54.37575
17.03.2000 00:00:00;414519;51.5844;51.5844
20.03.2000 00:00:00;414519;52.57905625;52.57905625
21.03.2000 00:00:00;414519;53.80009375;53.80009375
22.03.2000 00:00:00;414519;51.8548125;51.8548125
23.03.2000 00:00:00;414519;51.96685;51.96685
24.03.2000 00:00:00;414519;51.998475;51.998475
27.03.2000 00:00:00;414519;51.30675;51.30675
28.03.2000 00:00:00;414519;51.7599;51.7599
29.03.2000 00:00:00;414519;53.408575;53.408575
30.03.2000 00:00:00;414519;55.3721875;55.3721875
31.03.2000 00:00:00;414519;54.65086875;54.65086875
03.04.2000 00:00:00;414519;55.4751;55.4751
04.04.2000 00:00:00;414519;56.22868125;56.22868125
05.04.2000 00:00:00;414519;54.61059375;54.61059375
06.04.2000 00:00:00;414519;55.13096875;55.13096875
07.04.2000 00:00:00;414519;54.3011875;54.3011875
10.04.2000 00:00:00;414519;54.17600625;54.17600625
11.04.2000 00:00:00;414519;56.40340625;56.40340625
12.04.2000 00:00:00;414519;59.8498625;59.8498625
13.04.2000 00:00:00;414519;58.8544125;58.8544125
14.04.2000 00:00:00;414519;55.61285;55.61285
17.04.2000 00:00:00;414519;55.758075;55.758075
18.04.2000 00:00:00;414519;54.00793125;54.00793125
19.04.2000 00:00:00;414519;53.976375;53.976375
20.04.2000 00:00:00;414519;56.5404;56.5404
24.04.2000 00:00:00;414519;57.77220625;57.77220625
25.04.2000 00:00:00;414519;60.390125;60.390125
26.04.2000 00:00:00;414519;58.9805625;58.9805625
27.04.2000 00:00:00;414519;59.11425;59.11425
28.04.2000 00:00:00;414519;59.8505625;59.8505625
01.05.2000 00:00:00;414519;59.94455;59.94455
02.05.2000 00:00:00;414519;59.9701875;59.9701875
03.05.2000 00:00:00;414519;59.139975;59.139975
04.05.2000 00:00:00;414519;59.9561375;59.9561375
05.05.2000 00:00:00;414519;61.5360375;61.5360375
08.05.2000 00:00:00;414519;61.39415;61.39415
09.05.2000 00:00:00;414519;61.5273;61.5273
10.05.2000 00:00:00;414519;59.953275;59.953275
11.05.2000 00:00:00;414519;61.92396875;61.92396875
12.05.2000 00:00:00;414519;60.7257;60.7257
15.05.2000 00:00:00;414519;62.16991875;62.16991875
16.05.2000 00:00:00;414519;62.5876125;62.5876125
17.05.2000 00:00:00;414519;62.20641875;62.20641875
18.05.2000 00:00:00;414519;61.91814375;61.91814375
19.05.2000 00:00:00;414519;61.699625;61.699625
22.05.2000 00:00:00;414519;61.05945;61.05945
23.05.2000 00:00:00;414519;60.22795;60.22795
24.05.2000 00:00:00;414519;60.5055;60.5055
25.05.2000 00:00:00;414519;56.61525;56.61525
26.05.2000 00:00:00;414519;54.89729375;54.89729375
30.05.2000 00:00:00;414519;55.6878125;55.6878125
31.05.2000 00:00:00;414519;53.15578125;53.15578125
01.06.2000 00:00:00;414519;53.575725;53.575725
02.06.2000 00:00:00;414519;53.03;53.03
05.06.2000 00:00:00;414519;51.8612625;51.8612625
06.06.2000 00:00:00;414519;50.5422;50.5422
07.06.2000 00:00:00;414519;50.21619375;50.21619375
08.06.2000 00:00:00;414519;50.1682125;50.1682125
09.06.2000 00:00:00;414519;50.32958125;50.32958125
12.06.2000 00:00:00;414519;50.949275;50.949275
13.06.2000 00:00:00;414519;49.3444875;49.3444875
14.06.2000 00:00:00;414519;50.1655;50.1655
15.06.2000 00:00:00;414519;49.3218;49.3218
16.06.2000 00:00:00;414519;48.28065625;48.28065625
19.06.2000 00:00:00;414519;46.32271875;46.32271875
20.06.2000 00:00:00;414519;45.5445;45.5445
21.06.2000 00:00:00;414519;44.5303375;44.5303375
22.06.2000 00:00:00;414519;45.7563;45.7563
23.06.2000 00:00:00;414519;45.99505625;45.99505625
26.06.2000 00:00:00;414519;45.8638;45.8638
27.06.2000 00:00:00;414519;47.34640625;47.34640625
28.06.2000 00:00:00;414519;47.9107;47.9107
29.06.2000 00:00:00;414519;47.286;47.286
30.06.2000 00:00:00;414519;46.39075625;46.39075625
03.07.2000 00:00:00;414519;48.23896875;48.23896875
05.07.2000 00:00:00;414519;47.020025;47.020025
06.07.2000 00:00:00;414519;46.13876875;46.13876875
07.07.2000 00:00:00;414519;46.0641;46.0641
10.07.2000 00:00:00;414519;45.8193375;45.8193375
11.07.2000 00:00:00;414519;47.90695;47.90695
12.07.2000 00:00:00;414519;47.66705625;47.66705625
13.07.2000 00:00:00;414519;49.13934375;49.13934375
14.07.2000 00:00:00;414519;48.36203125;48.36203125
17.07.2000 00:00:00;414519;47.00873125;47.00873125
18.07.2000 00:00:00;414519;46.6133125;46.6133125
19.07.2000 00:00:00;414519;45.61159375;45.61159375
20.07.2000 00:00:00;414519;45.183275;45.183275
21.07.2000 00:00:00;414519;46.083375;46.083375
24.07.2000 00:00:00;414519;45.408125;45.408125
25.07.2000 00:00:00;414519;45.6951;45.6951
26.07.2000 00:00:00;414519;44.11850625;44.11850625
27.07.2000 00:00:00;414519;43.8821375;43.8821375
28.07.2000 00:00:00;414519;43.6251375;43.6251375
31.07.2000 00:00:00;414519;43.9994625;43.9994625
01.08.2000 00:00:00;414519;43.90588125;43.90588125
02.08.2000 00:00:00;414519;44.4276;44.4276
03.08.2000 00:00:00;414519;44.5968;44.5968
04.08.2000 00:00:00;414519;44.2548;44.2548
07.08.2000 00:00:00;414519;46.48640625;46.48640625
08.08.2000 00:00:00;414519;46.48640625;46.48640625
09.08.2000 00:00:00;414519;47.3404375;47.3404375
10.08.2000 00:00:00;414519;45.9477625;45.9477625
11.08.2000 00:00:00;414519;46.8953625;46.8953625
14.08.2000 00:00:00;414519;46.7576375;46.7576375
15.08.2000 00:00:00;414519;47.5839875;47.5839875
16.08.2000 00:00:00;414519;47.8594375;47.8594375
17.08.2000 00:00:00;414519;47.3085375;47.3085375
18.08.2000 00:00:00;414519;47.4462625;47.4462625
21.08.2000 00:00:00;414519;46.8265;46.8265
22.08.2000 00:00:00;414519;47.42340625;47.42340625
23.08.2000 00:00:00;414519;47.104525;47.104525
24.08.2000 00:00:00;414519;47.0390625;47.0390625
25.08.2000 00:00:00;414519;47.3499;47.3499
28.08.2000 00:00:00;414519;47.30201875;47.30201875
29.08.2000 00:00:00;414519;46.5612;46.5612
30.08.2000 00:00:00;414519;45.99375;45.99375
31.08.2000 00:00:00;414519;45.38025;45.38025
01.09.2000 00:00:00;414519;45.38025;45.38025
05.09.2000 00:00:00;414519;45.9630375;45.9630375
06.09.2000 00:00:00;414519;46.9484625;46.9484625
07.09.2000 00:00:00;414519;46.53045;46.53045
08.09.2000 00:00:00;414519;45.3270375;45.3270375
11.09.2000 00:00:00;414519;45.943625;45.943625
12.09.2000 00:00:00;414519;46.376;46.376
13.09.2000 00:00:00;414519;46.233225;46.233225
14.09.2000 00:00:00;414519;45.267625;45.267625
15.09.2000 00:00:00;414519;44.2288125;44.2288125
18.09.2000 00:00:00;414519;43.8858;43.8858
19.09.2000 00:00:00;414519;43.31660625;43.31660625
20.09.2000 00:00:00;414519;42.64903125;42.64903125
21.09.2000 00:00:00;414519;43.4238;43.4238
22.09.2000 00:00:00;414519;43.37685;43.37685
25.09.2000 00:00:00;414519;41.57521875;41.57521875
26.09.2000 00:00:00;414519;41.34145;41.34145
27.09.2000 00:00:00;414519;42.767775;42.767775
28.09.2000 00:00:00;414519;44.000625;44.000625
29.09.2000 00:00:00;414519;44.94609375;44.94609375
02.10.2000 00:00:00;414519;44.6038125;44.6038125
03.10.2000 00:00:00;414519;45.72935625;45.72935625
04.10.2000 00:00:00;414519;47.0264375;47.0264375
05.10.2000 00:00:00;414519;46.40895;46.40895
06.10.2000 00:00:00;414519;46.53143125;46.53143125
09.10.2000 00:00:00;414519;46.84351875;46.84351875
10.10.2000 00:00:00;414519;46.6236;46.6236
11.10.2000 00:00:00;414519;45.788025;45.788025
12.10.2000 00:00:00;414519;43.744625;43.744625
13.10.2000 00:00:00;414519;43.9622;43.9622
16.10.2000 00:00:00;414519;45.0831;45.0831
17.10.2000 00:00:00;414519;44.314725;44.314725
18.10.2000 00:00:00;414519;44.6614;44.6614
19.10.2000 00:00:00;414519;45.9587875;45.9587875
20.10.2000 00:00:00;414519;44.57625;44.57625
23.10.2000 00:00:00;414519;44.83681875;44.83681875
24.10.2000 00:00:00;414519;46.5470125;46.5470125
25.10.2000 00:00:00;414519;45.35428125;45.35428125
26.10.2000 00:00:00;414519;47.3620125;47.3620125
27.10.2000 00:00:00;414519;48.348;48.348
30.10.2000 00:00:00;414519;52.10620625;52.10620625
31.10.2000 00:00:00;414519;52.916325;52.916325
01.11.2000 00:00:00;414519;52.0013125;52.0013125
02.11.2000 00:00:00;414519;52.4025;52.4025
03.11.2000 00:00:00;414519;52.96649375;52.96649375
06.11.2000 00:00:00;414519;52.2135;52.2135
07.11.2000 00:00:00;414519;52.711725;52.711725
08.11.2000 00:00:00;414519;53.2168;53.2168
09.11.2000 00:00:00;414519;52.82870625;52.82870625
10.11.2000 00:00:00;414519;51.80574375;51.80574375
13.11.2000 00:00:00;414519;51.483875;51.483875
14.11.2000 00:00:00;414519;52.3556625;52.3556625
15.11.2000 00:00:00;414519;52.9390125;52.9390125
16.11.2000 00:00:00;414519;51.1668;51.1668
17.11.2000 00:00:00;414519;50.8748625;50.8748625
20.11.2000 00:00:00;414519;49.3604375;49.3604375
21.11.2000 00:00:00;414519;49.40695;49.40695
22.11.2000 00:00:00;414519;49.22315;49.22315
24.11.2000 00:00:00;414519;49.786875;49.786875
27.11.2000 00:00:00;414519;48.70855;48.70855
28.11.2000 00:00:00;414519;47.8716;47.8716
29.11.2000 00:00:00;414519;48.33505;48.33505
30.11.2000 00:00:00;414519;47.85725;47.85725
01.12.2000 00:00:00;414519;49.246275;49.246275
04.12.2000 00:00:00;414519;50.177375;50.177375
05.12.2000 00:00:00;414519;51.49155;51.49155
06.12.2000 00:00:00;414519;49.7021;49.7021
07.12.2000 00:00:00;414519;47.3466;47.3466
08.12.2000 00:00:00;414519;49.304975;49.304975
11.12.2000 00:00:00;414519;49.0673;49.0673
12.12.2000 00:00:00;414519;48.433;48.433
13.12.2000 00:00:00;414519;47.275075;47.275075
14.12.2000 00:00:00;414519;47.4946875;47.4946875
15.12.2000 00:00:00;414519;46.16551875;46.16551875
18.12.2000 00:00:00;414519;47.12765625;47.12765625
19.12.2000 00:00:00;414519;49.0388625;49.0388625
20.12.2000 00:00:00;414519;46.7915875;46.7915875
21.12.2000 00:00:00;414519;47.63685;47.63685
22.12.2000 00:00:00;414519;49.0148;49.0148
26.12.2000 00:00:00;414519;48.5142875;48.5142875
27.12.2000 00:00:00;414519;50.239175;50.239175
28.12.2000 00:00:00;414519;51.05491875;51.05491875
29.12.2000 00:00:00;414519;49.3506;49.3506
02.01.2001 00:00:00;414519;48.2637125;48.2637125
03.01.2001 00:00:00;414519;48.3301;48.3301
04.01.2001 00:00:00;414519;51.78225;51.78225
05.01.2001 00:00:00;414519;50.3376;50.3376
08.01.2001 00:00:00;414519;51.19944375;51.19944375
09.01.2001 00:00:00;414519;49.71955625;49.71955625
10.01.2001 00:00:00;414519;49.1545;49.1545
11.01.2001 00:00:00;414519;47.037975;47.037975
12.01.2001 00:00:00;414519;47.2444;47.2444
16.01.2001 00:00:00;414519;49.0381375;49.0381375
17.01.2001 00:00:00;414519;48.23141875;48.23141875
18.01.2001 00:00:00;414519;47.727;47.727
19.01.2001 00:00:00;414519;46.92525;46.92525
22.01.2001 00:00:00;414519;47.3525625;47.3525625
23.01.2001 00:00:00;414519;47.57025;47.57025
24.01.2001 00:00:00;414519;48.725975;48.725975
25.01.2001 00:00:00;414519;49.79165625;49.79165625
26.01.2001 00:00:00;414519;48.9922875;48.9922875
29.01.2001 00:00:00;414519;49.4723258304595;49.4723258304595
30.01.2001 00:00:00;414519;49.409039176941;49.409039176941
31.01.2001 00:00:00;414519;49.6250283279419;49.6250283279419
01.02.2001 00:00:00;414519;49.7828083786011;49.7828083786011
02.02.2001 00:00:00;414519;50.9746883262634;50.9746883262634
05.02.2001 00:00:00;414519;52.406925;52.406925
06.02.2001 00:00:00;414519;53.5152678058624;53.5152678058624
07.02.2001 00:00:00;414519;52.455743019104;52.455743019104
08.02.2001 00:00:00;414519;54.1074395046234;54.1074395046234
09.02.2001 00:00:00;414519;53.6071066474915;53.6071066474915
12.02.2001 00:00:00;414519;54.1113346862793;54.1113346862793
13.02.2001 00:00:00;414519;54.6619275043488;54.6619275043488
14.02.2001 00:00:00;414519;54.8160433387756;54.8160433387756
15.02.2001 00:00:00;414519;56.3142;56.3142
16.02.2001 00:00:00;414519;54.1334383346558;54.1334383346558
20.02.2001 00:00:00;414519;54.9790038459778;54.9790038459778
21.02.2001 00:00:00;414519;54.4087184886933;54.4087184886933
22.02.2001 00:00:00;414519;55.2685964801788;55.2685964801788
23.02.2001 00:00:00;414519;54.15795;54.15795
26.02.2001 00:00:00;414519;56.2460619873047;56.2460619873047
27.02.2001 00:00:00;414519;55.6240441669464;55.6240441669464
28.02.2001 00:00:00;414519;55.3719583465576;55.3719583465576
01.03.2001 00:00:00;414519;55.0031463279724;55.0031463279724
02.03.2001 00:00:00;414519;56.1408851448059;56.1408851448059
05.03.2001 00:00:00;414519;57.4690816421509;57.4690816421509
06.03.2001 00:00:00;414519;57.2821816368103;57.2821816368103
07.03.2001 00:00:00;414519;59.1435608356476;59.1435608356476
08.03.2001 00:00:00;414519;59.7907955066681;59.7907955066681
09.03.2001 00:00:00;414519;59.57925;59.57925
12.03.2001 00:00:00;414519;58.8189108203887;58.8189108203887
13.03.2001 00:00:00;414519;57.5310498332977;57.5310498332977
14.03.2001 00:00:00;414519;55.9676153320312;55.9676153320312
15.03.2001 00:00:00;414519;56.0727758548737;56.0727758548737
16.03.2001 00:00:00;414519;55.9029717094421;55.9029717094421
19.03.2001 00:00:00;414519;56.9546173202514;56.9546173202514
20.03.2001 00:00:00;414519;55.8397565059662;55.8397565059662
21.03.2001 00:00:00;414519;54.5449858501434;54.5449858501434
22.03.2001 00:00:00;414519;53.0647046875;53.0647046875
23.03.2001 00:00:00;414519;51.5073709739686;51.5073709739686
26.03.2001 00:00:00;414519;52.0270531703949;52.0270531703949
27.03.2001 00:00:00;414519;52.6732058559417;52.6732058559417
28.03.2001 00:00:00;414519;52.9041774845123;52.9041774845123
29.03.2001 00:00:00;414519;52.6691292129516;52.6691292129516
30.03.2001 00:00:00;414519;52.4181571735382;52.4181571735382
02.04.2001 00:00:00;414519;53.7610817306518;53.7610817306518
03.04.2001 00:00:00;414519;51.3372191448212;51.3372191448212
04.04.2001 00:00:00;414519;53.1404858142853;53.1404858142853
05.04.2001 00:00:00;414519;54.7875067008972;54.7875067008972
06.04.2001 00:00:00;414519;53.3214085083008;53.3214085083008
09.04.2001 00:00:00;414519;53.728242338562;53.728242338562
10.04.2001 00:00:00;414519;56.6351596565246;56.6351596565246
11.04.2001 00:00:00;414519;56.4272044483185;56.4272044483185
12.04.2001 00:00:00;414519;56.3403;56.3403
16.04.2001 00:00:00;414519;56.6143367225647;56.6143367225647
17.04.2001 00:00:00;414519;56.945572441864;56.945572441864
18.04.2001 00:00:00;414519;59.1070330398559;59.1070330398559
19.04.2001 00:00:00;414519;59.0831353149414;59.0831353149414
20.04.2001 00:00:00;414519;58.5260883102417;58.5260883102417
23.04.2001 00:00:00;414519;58.8972006378174;58.8972006378174
24.04.2001 00:00:00;414519;59.1086588058472;59.1086588058472
25.04.2001 00:00:00;414519;59.5249817008972;59.5249817008972
26.04.2001 00:00:00;414519;60.3282681694031;60.3282681694031
27.04.2001 00:00:00;414519;60.2035379737854;60.2035379737854
30.04.2001 00:00:00;414519;59.8841067192078;59.8841067192078
01.05.2001 00:00:00;414519;59.4961117080688;59.4961117080688
02.05.2001 00:00:00;414519;60.6020500518799;60.6020500518799
03.05.2001 00:00:00;414519;60.7900341419221;60.7900341419221
04.05.2001 00:00:00;414519;61.7292293167114;61.7292293167114
07.05.2001 00:00:00;414519;61.3851674865722;61.3851674865722
08.05.2001 00:00:00;414519;62.19174634552;62.19174634552
09.05.2001 00:00:00;414519;62.3296947921753;62.3296947921753
10.05.2001 00:00:00;414519;62.9140061061859;62.9140061061859
11.05.2001 00:00:00;414519;63.2328852195739;63.2328852195739
14.05.2001 00:00:00;414519;64.4761692214965;64.4761692214965
15.05.2001 00:00:00;414519;64.6213166107178;64.6213166107178
16.05.2001 00:00:00;414519;66.9955873809814;66.9955873809814
17.05.2001 00:00:00;414519;66.9775416915894;66.9775416915894
18.05.2001 00:00:00;414519;67.2427029132843;67.2427029132843
21.05.2001 00:00:00;414519;67.9351410446168;67.9351410446168
22.05.2001 00:00:00;414519;68.5092891185761;68.5092891185761
23.05.2001 00:00:00;414519;67.6051917739868;67.6051917739868
24.05.2001 00:00:00;414519;65.1825332191467;65.1825332191467
25.05.2001 00:00:00;414519;65.056212576294;65.056212576294
29.05.2001 00:00:00;414519;65.8115914642334;65.8115914642334
30.05.2001 00:00:00;414519;64.7013419570923;64.7013419570923
31.05.2001 00:00:00;414519;65.7080781967163;65.7080781967163
01.06.2001 00:00:00;414519;64.7061345581055;64.7061345581055
04.06.2001 00:00:00;414519;65.1879971805573;65.1879971805573
05.06.2001 00:00:00;414519;65.2784379745483;65.2784379745483
06.06.2001 00:00:00;414519;65.3118443748474;65.3118443748474
07.06.2001 00:00:00;414519;65.1206557437897;65.1206557437897
08.06.2001 00:00:00;414519;64.413375;64.413375
11.06.2001 00:00:00;414519;64.2835368270874;64.2835368270874
12.06.2001 00:00:00;414519;64.123695180893;64.123695180893
13.06.2001 00:00:00;414519;63.6550260734558;63.6550260734558
14.06.2001 00:00:00;414519;61.4529201774597;61.4529201774597
15.06.2001 00:00:00;414519;60.5224148757934;60.5224148757934
18.06.2001 00:00:00;414519;60.4548690635681;60.4548690635681
19.06.2001 00:00:00;414519;61.8125422866821;61.8125422866821
20.06.2001 00:00:00;414519;62.5514383850098;62.5514383850098
21.06.2001 00:00:00;414519;61.7573754638672;61.7573754638672
22.06.2001 00:00:00;414519;60.10565;60.10565
25.06.2001 00:00:00;414519;59.526875;59.526875
26.06.2001 00:00:00;414519;60.0208940536499;60.0208940536499
27.06.2001 00:00:00;414519;60.3151669372559;60.3151669372559
28.06.2001 00:00:00;414519;61.2244781982422;61.2244781982422
29.06.2001 00:00:00;414519;62.05888463974;62.05888463974
02.07.2001 00:00:00;414519;62.6896240150452;62.6896240150452
03.07.2001 00:00:00;414519;62.0915987396241;62.0915987396241
05.07.2001 00:00:00;414519;63.4027286354065;63.4027286354065
06.07.2001 00:00:00;414519;61.1780685577393;61.1780685577393
09.07.2001 00:00:00;414519;62.4012307205201;62.4012307205201
10.07.2001 00:00:00;414519;60.9633517837524;60.9633517837524
11.07.2001 00:00:00;414519;60.7876761772156;60.7876761772156
12.07.2001 00:00:00;414519;62.9099917892456;62.9099917892456
13.07.2001 00:00:00;414519;62.1485589256287;62.1485589256287
16.07.2001 00:00:00;414519;61.1506735355378;61.1506735355378
17.07.2001 00:00:00;414519;61.291378213501;61.291378213501
18.07.2001 00:00:00;414519;61.5802691753388;61.5802691753388
19.07.2001 00:00:00;414519;62.9404067573547;62.9404067573547
20.07.2001 00:00:00;414519;62.6010130508422;62.6010130508422
23.07.2001 00:00:00;414519;61.6092838882446;61.6092838882446
24.07.2001 00:00:00;414519;59.2541782562256;59.2541782562256
25.07.2001 00:00:00;414519;61.3465458675384;61.3465458675384
26.07.2001 00:00:00;414519;61.3965591293336;61.3965591293336
27.07.2001 00:00:00;414519;61.7658340805054;61.7658340805054
30.07.2001 00:00:00;414519;60.9843832557678;60.9843832557678
31.07.2001 00:00:00;414519;62.7968608718872;62.7968608718872
01.08.2001 00:00:00;414519;62.141626214981;62.141626214981
02.08.2001 00:00:00;414519;62.9476074806213;62.9476074806213
03.08.2001 00:00:00;414519;62.6744759292602;62.6744759292602
06.08.2001 00:00:00;414519;62.7403208671569;62.7403208671569
07.08.2001 00:00:00;414519;63.0140140434265;63.0140140434265
08.08.2001 00:00:00;414519;61.7874364341736;61.7874364341736
09.08.2001 00:00:00;414519;60.7594273742675;60.7594273742675
10.08.2001 00:00:00;414519;60.9918036346436;60.9918036346436
13.08.2001 00:00:00;414519;60.9973495098114;60.9973495098114
14.08.2001 00:00:00;414519;60.8565423233032;60.8565423233032
15.08.2001 00:00:00;414519;59.4793413391113;59.4793413391113
16.08.2001 00:00:00;414519;59.2554580062866;59.2554580062866
17.08.2001 00:00:00;414519;58.133025;58.133025
20.08.2001 00:00:00;414519;57.54;57.54
21.08.2001 00:00:00;414519;58.06343383255;58.06343383255
22.08.2001 00:00:00;414519;58.175361328125;58.175361328125
23.08.2001 00:00:00;414519;58.4115141677856;58.4115141677856
24.08.2001 00:00:00;414519;60.1320046600342;60.1320046600342
27.08.2001 00:00:00;414519;60.3075733222961;60.3075733222961
28.08.2001 00:00:00;414519;59.4229296646118;59.4229296646118
29.08.2001 00:00:00;414519;58.6310040130615;58.6310040130615
30.08.2001 00:00:00;414519;57.7921958324433;57.7921958324433
31.08.2001 00:00:00;414519;59.6185908233643;59.6185908233643
04.09.2001 00:00:00;414519;62.0460545162201;62.0460545162201
05.09.2001 00:00:00;414519;61.7122877986908;61.7122877986908
06.09.2001 00:00:00;414519;60.6338839759827;60.6338839759827
07.09.2001 00:00:00;414519;57.3837798183442;57.3837798183442
10.09.2001 00:00:00;414519;56.6243531887054;56.6243531887054
17.09.2001 00:00:00;414519;49.0687983398438;49.0687983398438
18.09.2001 00:00:00;414519;48.7755;48.7755
19.09.2001 00:00:00;414519;47.9040308532715;47.9040308532715
20.09.2001 00:00:00;414519;45.3305233299256;45.3305233299256
21.09.2001 00:00:00;414519;44.7402889938355;44.7402889938355
24.09.2001 00:00:00;414519;47.0979;47.0979
25.09.2001 00:00:00;414519;46.7073379852295;46.7073379852295
26.09.2001 00:00:00;414519;46.0445;46.0445
27.09.2001 00:00:00;414519;46.8771441692353;46.8771441692353
28.09.2001 00:00:00;414519;50.29755;50.29755
01.10.2001 00:00:00;414519;49.7251269996643;49.7251269996643
02.10.2001 00:00:00;414519;50.4200911674499;50.4200911674499
03.10.2001 00:00:00;414519;51.5750406646729;51.5750406646729
04.10.2001 00:00:00;414519;51.4289381637573;51.4289381637573
05.10.2001 00:00:00;414519;51.81775;51.81775
08.10.2001 00:00:00;414519;50.4593774963379;50.4593774963379
09.10.2001 00:00:00;414519;51.3146;51.3146
10.10.2001 00:00:00;414519;52.9706091632844;52.9706091632844
11.10.2001 00:00:00;414519;56.2801403388977;56.2801403388977
12.10.2001 00:00:00;414519;54.6983153274536;54.6983153274536
15.10.2001 00:00:00;414519;54.4399378318786;54.4399378318786
16.10.2001 00:00:00;414519;54.8179850143433;54.8179850143433
17.10.2001 00:00:00;414519;54.2763466850281;54.2763466850281
18.10.2001 00:00:00;414519;53.7531970138549;53.7531970138549
19.10.2001 00:00:00;414519;53.8478799636841;53.8478799636841
22.10.2001 00:00:00;414519;56.4919291431428;56.4919291431428
23.10.2001 00:00:00;414519;56.4750008583068;56.4750008583068
24.10.2001 00:00:00;414519;56.015;56.015
25.10.2001 00:00:00;414519;56.7435132972717;56.7435132972717
26.10.2001 00:00:00;414519;57.414421880722;57.414421880722
29.10.2001 00:00:00;414519;55.1490533119202;55.1490533119202
30.10.2001 00:00:00;414519;53.7365449783325;53.7365449783325
31.10.2001 00:00:00;414519;54.2306000335694;54.2306000335694
01.11.2001 00:00:00;414519;55.1889618530274;55.1889618530274
02.11.2001 00:00:00;414519;56.8985558437347;56.8985558437347
05.11.2001 00:00:00;414519;57.5151815319061;57.5151815319061
06.11.2001 00:00:00;414519;58.7939494895935;58.7939494895935
07.11.2001 00:00:00;414519;58.0164213562011;58.0164213562011
08.11.2001 00:00:00;414519;57.9867261196136;57.9867261196136
09.11.2001 00:00:00;414519;58.348338804245;58.348338804245
12.11.2001 00:00:00;414519;56.9769041484833;56.9769041484833
13.11.2001 00:00:00;414519;59.924289653778;59.924289653778
14.11.2001 00:00:00;414519;60.9321645187378;60.9321645187378
15.11.2001 00:00:00;414519;61.4174398269653;61.4174398269653
16.11.2001 00:00:00;414519;61.1266260696411;61.1266260696411
19.11.2001 00:00:00;414519;62.4585197841645;62.4585197841645
20.11.2001 00:00:00;414519;61.7434750988007;61.7434750988007
21.11.2001 00:00:00;414519;61.4046983474732;61.4046983474732
23.11.2001 00:00:00;414519;62.4254979141235;62.4254979141235
26.11.2001 00:00:00;414519;61.7440017318726;61.7440017318726
27.11.2001 00:00:00;414519;61.3932066925049;61.3932066925049
28.11.2001 00:00:00;414519;59.8861782791138;59.8861782791138
29.11.2001 00:00:00;414519;60.103512171936;60.103512171936
30.11.2001 00:00:00;414519;60.0126975109101;60.0126975109101
03.12.2001 00:00:00;414519;59.6381770294189;59.6381770294189
04.12.2001 00:00:00;414519;60.2903267990113;60.2903267990113
05.12.2001 00:00:00;414519;62.3373608615875;62.3373608615875
06.12.2001 00:00:00;414519;61.4920921710968;61.4920921710968
07.12.2001 00:00:00;414519;59.7938458850861;59.7938458850861
10.12.2001 00:00:00;414519;58.0288870307922;58.0288870307922
11.12.2001 00:00:00;414519;58.6663;58.6663
12.12.2001 00:00:00;414519;57.303552123642;57.303552123642
13.12.2001 00:00:00;414519;56.059349149704;56.059349149704
14.12.2001 00:00:00;414519;55.1694416870117;55.1694416870117
17.12.2001 00:00:00;414519;56.1046208442687;56.1046208442687
18.12.2001 00:00:00;414519;57.646513861084;57.646513861084
19.12.2001 00:00:00;414519;57.4125611877441;57.4125611877441
20.12.2001 00:00:00;414519;57.7414591495514;57.7414591495514
21.12.2001 00:00:00;414519;56.9581400619507;56.9581400619507
24.12.2001 00:00:00;414519;57.9777612171173;57.9777612171173
26.12.2001 00:00:00;414519;57.8764391307831;57.8764391307831
27.12.2001 00:00:00;414519;57.4497191371918;57.4497191371918
28.12.2001 00:00:00;414519;57.9660822109222;57.9660822109222
31.12.2001 00:00:00;414519;58.1229373718261;58.1229373718261
02.01.2002 00:00:00;414519;56.8657926757813;56.8657926757813
03.01.2002 00:00:00;414519;58.0804338661194;58.0804338661194
04.01.2002 00:00:00;414519;60.1384676589966;60.1384676589966
07.01.2002 00:00:00;414519;60.2049238803864;60.2049238803864
08.01.2002 00:00:00;414519;59.3918;59.3918
09.01.2002 00:00:00;414519;59.3852418899536;59.3852418899536
10.01.2002 00:00:00;414519;57.191314145279;57.191314145279
11.01.2002 00:00:00;414519;56.3908499717713;56.3908499717713
14.01.2002 00:00:00;414519;54.1901538291931;54.1901538291931
15.01.2002 00:00:00;414519;54.2711388015748;54.2711388015748
16.01.2002 00:00:00;414519;52.7445391727448;52.7445391727448
17.01.2002 00:00:00;414519;51.6992491340638;51.6992491340638
18.01.2002 00:00:00;414519;51.0464766906739;51.0464766906739
22.01.2002 00:00:00;414519;51.1641559638978;51.1641559638978
23.01.2002 00:00:00;414519;52.5781754821777;52.5781754821777
24.01.2002 00:00:00;414519;53.3145591308594;53.3145591308594
25.01.2002 00:00:00;414519;55.5747382369995;55.5747382369995
28.01.2002 00:00:00;414519;55.2334834674835;55.2334834674835
29.01.2002 00:00:00;414519;53.8584735870362;53.8584735870362
30.01.2002 00:00:00;414519;54.770788589859;54.770788589859
31.01.2002 00:00:00;414519;56.4178491771698;56.4178491771698
01.02.2002 00:00:00;414519;55.8653327087403;55.8653327087403
04.02.2002 00:00:00;414519;54.3985403518677;54.3985403518677
05.02.2002 00:00:00;414519;53.4646087684632;53.4646087684632
06.02.2002 00:00:00;414519;53.7538669464112;53.7538669464112
07.02.2002 00:00:00;414519;53.6211705932618;53.6211705932618
08.02.2002 00:00:00;414519;53.680728251648;53.680728251648
11.02.2002 00:00:00;414519;55.7345993041992;55.7345993041992
12.02.2002 00:00:00;414519;55.5161938259125;55.5161938259125
13.02.2002 00:00:00;414519;56.0149517478943;56.0149517478943
14.02.2002 00:00:00;414519;55.4647125766754;55.4647125766754
15.02.2002 00:00:00;414519;56.2211091255189;56.2211091255189
19.02.2002 00:00:00;414519;54.3115982589722;54.3115982589722
20.02.2002 00:00:00;414519;56.2324;56.2324
21.02.2002 00:00:00;414519;56.9392381752014;56.9392381752014
22.02.2002 00:00:00;414519;57.5668817428589;57.5668817428589
25.02.2002 00:00:00;414519;58.255925;58.255925
26.02.2002 00:00:00;414519;58.7929770545959;58.7929770545959
27.02.2002 00:00:00;414519;59.2435208827972;59.2435208827972
28.02.2002 00:00:00;414519;59.3349232368469;59.3349232368469
01.03.2002 00:00:00;414519;60.7792982368469;60.7792982368469
04.03.2002 00:00:00;414519;62.3574950515747;62.3574950515747
05.03.2002 00:00:00;414519;60.2977048244476;60.2977048244476
06.03.2002 00:00:00;414519;60.889919128418;60.889919128418
07.03.2002 00:00:00;414519;61.452;61.452
08.03.2002 00:00:00;414519;62.0579167808533;62.0579167808533
11.03.2002 00:00:00;414519;61.8530408706664;61.8530408706664
12.03.2002 00:00:00;414519;62.2945525230408;62.2945525230408
13.03.2002 00:00:00;414519;61.3804191295624;61.3804191295624
14.03.2002 00:00:00;414519;62.0395139221191;62.0395139221191
15.03.2002 00:00:00;414519;62.6153835186005;62.6153835186005
18.03.2002 00:00:00;414519;62.8452252120971;62.8452252120971
19.03.2002 00:00:00;414519;63.2989505195618;63.2989505195618
20.03.2002 00:00:00;414519;64.0145706176758;64.0145706176758
21.03.2002 00:00:00;414519;61.9922893829345;61.9922893829345
22.03.2002 00:00:00;414519;61.2489882644653;61.2489882644653
25.03.2002 00:00:00;414519;60.0973443481446;60.0973443481446
26.03.2002 00:00:00;414519;61.4897458259582;61.4897458259582
27.03.2002 00:00:00;414519;63.3350891262055;63.3350891262055
28.03.2002 00:00:00;414519;63.080607824707;63.080607824707
01.04.2002 00:00:00;414519;61.88475;61.88475
02.04.2002 00:00:00;414519;62.0071584358216;62.0071584358216
03.04.2002 00:00:00;414519;61.2190393066406;61.2190393066406
04.04.2002 00:00:00;414519;60.1252940872192;60.1252940872192
05.04.2002 00:00:00;414519;60.951766733551;60.951766733551
08.04.2002 00:00:00;414519;61.5699717430115;61.5699717430115
09.04.2002 00:00:00;414519;61.5961678264618;61.5961678264618
10.04.2002 00:00:00;414519;62.433053918457;62.433053918457
11.04.2002 00:00:00;414519;61.5204725189209;61.5204725189209
12.04.2002 00:00:00;414519;61.8176882644653;61.8176882644653
15.04.2002 00:00:00;414519;61.1281615600586;61.1281615600586
16.04.2002 00:00:00;414519;62.6612270736694;62.6612270736694
17.04.2002 00:00:00;414519;61.8009317176819;61.8009317176819
18.04.2002 00:00:00;414519;59.605084514618;59.605084514618
19.04.2002 00:00:00;414519;60.1768;60.1768
22.04.2002 00:00:00;414519;59.4341381092072;59.4341381092072
23.04.2002 00:00:00;414519;58.7438818874359;58.7438818874359
24.04.2002 00:00:00;414519;58.693330053711;58.693330053711
25.04.2002 00:00:00;414519;57.7342081699371;57.7342081699371
26.04.2002 00:00:00;414519;58.0349076797486;58.0349076797486
29.04.2002 00:00:00;414519;56.77475;56.77475
30.04.2002 00:00:00;414519;58.111180525589;58.111180525589
01.05.2002 00:00:00;414519;57.6091053466796;57.6091053466796
02.05.2002 00:00:00;414519;59.3012691551209;59.3012691551209
03.05.2002 00:00:00;414519;58.9661008308411;58.9661008308411
06.05.2002 00:00:00;414519;58.9520264995575;58.9520264995575
07.05.2002 00:00:00;414519;60.3174598331451;60.3174598331451
08.05.2002 00:00:00;414519;61.43785082016;61.43785082016
09.05.2002 00:00:00;414519;61.2650866798401;61.2650866798401
10.05.2002 00:00:00;414519;60.8175608367919;60.8175608367919
13.05.2002 00:00:00;414519;61.27955916214;61.27955916214
14.05.2002 00:00:00;414519;63.278218309021;63.278218309021
15.05.2002 00:00:00;414519;63.9472669898986;63.9472669898986
16.05.2002 00:00:00;414519;63.2809436645508;63.2809436645508
17.05.2002 00:00:00;414519;62.6886116592407;62.6886116592407
20.05.2002 00:00:00;414519;62.3683505088806;62.3683505088806
21.05.2002 00:00:00;414519;62.3137491703034;62.3137491703034
22.05.2002 00:00:00;414519;62.1791983528137;62.1791983528137
23.05.2002 00:00:00;414519;63.2005569839478;63.2005569839478
24.05.2002 00:00:00;414519;62.9430875030517;62.9430875030517
28.05.2002 00:00:00;414519;61.7551801643372;61.7551801643372
29.05.2002 00:00:00;414519;60.9905876724243;60.9905876724243
30.05.2002 00:00:00;414519;60.0558019767761;60.0558019767761
31.05.2002 00:00:00;414519;61.2340623268128;61.2340623268128
03.06.2002 00:00:00;414519;59.0708858127593;59.0708858127593
04.06.2002 00:00:00;414519;58.5043668663025;58.5043668663025
05.06.2002 00:00:00;414519;60.0009407043457;60.0009407043457
06.06.2002 00:00:00;414519;58.6846404838562;58.6846404838562
07.06.2002 00:00:00;414519;59.3874583847046;59.3874583847046
10.06.2002 00:00:00;414519;60.62775;60.62775
11.06.2002 00:00:00;414519;59.6617719703674;59.6617719703674
12.06.2002 00:00:00;414519;60.9043123222351;60.9043123222351
13.06.2002 00:00:00;414519;60.4909126464844;60.4909126464844
14.06.2002 00:00:00;414519;60.2880705459595;60.2880705459595
17.06.2002 00:00:00;414519;62.3044791915894;62.3044791915894
18.06.2002 00:00:00;414519;61.822966608429;61.822966608429
19.06.2002 00:00:00;414519;62.1523292003632;62.1523292003632
20.06.2002 00:00:00;414519;62.0999403671264;62.0999403671264
21.06.2002 00:00:00;414519;61.2667233703613;61.2667233703613
24.06.2002 00:00:00;414519;61.0210855960846;61.0210855960846
25.06.2002 00:00:00;414519;61.8573735279083;61.8573735279083
26.06.2002 00:00:00;414519;60.1395442295075;60.1395442295075
27.06.2002 00:00:00;414519;59.9502173812866;59.9502173812866
28.06.2002 00:00:00;414519;62.7418415466309;62.7418415466309
01.07.2002 00:00:00;414519;61.7032342288971;61.7032342288971
02.07.2002 00:00:00;414519;61.9840893104554;61.9840893104554
03.07.2002 00:00:00;414519;61.0704621337891;61.0704621337891
05.07.2002 00:00:00;414519;63.5570584320068;63.5570584320068
08.07.2002 00:00:00;414519;63.2704506084442;63.2704506084442
09.07.2002 00:00:00;414519;61.0381615356445;61.0381615356445
10.07.2002 00:00:00;414519;60.7930531543732;60.7930531543732
11.07.2002 00:00:00;414519;59.0408284618378;59.0408284618378
12.07.2002 00:00:00;414519;58.602988924408;58.602988924408
15.07.2002 00:00:00;414519;56.1981384849548;56.1981384849548
16.07.2002 00:00:00;414519;55.1275296405792;55.1275296405792
17.07.2002 00:00:00;414519;55.8734549087524;55.8734549087524
18.07.2002 00:00:00;414519;55.7733406066895;55.7733406066895
19.07.2002 00:00:00;414519;50.921736504364;50.921736504364
22.07.2002 00:00:00;414519;48.7970084533692;48.7970084533692
23.07.2002 00:00:00;414519;49.4431938446045;49.4431938446045
24.07.2002 00:00:00;414519;53.4180386138916;53.4180386138916
25.07.2002 00:00:00;414519;56.4469293052674;56.4469293052674
26.07.2002 00:00:00;414519;56.56;56.56
29.07.2002 00:00:00;414519;60.7545532470703;60.7545532470703
30.07.2002 00:00:00;414519;56.9575920722962;56.9575920722962
31.07.2002 00:00:00;414519;58.582441557312;58.582441557312
01.08.2002 00:00:00;414519;58.0701165504456;58.0701165504456
02.08.2002 00:00:00;414519;54.6830630722046;54.6830630722046
05.08.2002 00:00:00;414519;54.9798420848846;54.9798420848846
06.08.2002 00:00:00;414519;58.4275038928986;58.4275038928986
07.08.2002 00:00:00;414519;59.4749294128418;59.4749294128418
08.08.2002 00:00:00;414519;60.2557435779572;60.2557435779572
09.08.2002 00:00:00;414519;59.5469450988769;59.5469450988769
12.08.2002 00:00:00;414519;58.8794042194367;58.8794042194367
13.08.2002 00:00:00;414519;57.966713532257;57.966713532257
14.08.2002 00:00:00;414519;58.0387342987061;58.0387342987061
15.08.2002 00:00:00;414519;58.4128849334718;58.4128849334718
16.08.2002 00:00:00;414519;57.9861;57.9861
19.08.2002 00:00:00;414519;59.8776644683838;59.8776644683838
20.08.2002 00:00:00;414519;58.3961684394836;58.3961684394836
21.08.2002 00:00:00;414519;58.5115187530518;58.5115187530518
22.08.2002 00:00:00;414519;59.8212;59.8212
23.08.2002 00:00:00;414519;58.1580627441406;58.1580627441406
26.08.2002 00:00:00;414519;58.5686247249603;58.5686247249603
27.08.2002 00:00:00;414519;57.94175;57.94175
28.08.2002 00:00:00;414519;56.5748804664612;56.5748804664612
29.08.2002 00:00:00;414519;56.6856142936706;56.6856142936706
30.08.2002 00:00:00;414519;57.3841464668274;57.3841464668274
03.09.2002 00:00:00;414519;55.2245373149872;55.2245373149872
04.09.2002 00:00:00;414519;56.1591205387115;56.1591205387115
05.09.2002 00:00:00;414519;54.0180784622192;54.0180784622192
06.09.2002 00:00:00;414519;54.7674577026367;54.7674577026367
09.09.2002 00:00:00;414519;55.4132210884094;55.4132210884094
10.09.2002 00:00:00;414519;55.152875;55.152875
11.09.2002 00:00:00;414519;55.1767507839202;55.1767507839202
12.09.2002 00:00:00;414519;53.1920381240845;53.1920381240845
13.09.2002 00:00:00;414519;52.7413102508545;52.7413102508545
16.09.2002 00:00:00;414519;52.9265948429108;52.9265948429108
17.09.2002 00:00:00;414519;52.4091625270843;52.4091625270843
18.09.2002 00:00:00;414519;51.6162844676972;51.6162844676972
19.09.2002 00:00:00;414519;50.2740803787231;50.2740803787231
20.09.2002 00:00:00;414519;51.0786320686341;51.0786320686341
23.09.2002 00:00:00;414519;50.6045407768249;50.6045407768249
24.09.2002 00:00:00;414519;48.2103398651123;48.2103398651123
25.09.2002 00:00:00;414519;48.209175;48.209175
26.09.2002 00:00:00;414519;48.68275;48.68275
27.09.2002 00:00:00;414519;47.1388236877441;47.1388236877441
30.09.2002 00:00:00;414519;45.3302707736968;45.3302707736968
01.10.2002 00:00:00;414519;48.1718990707398;48.1718990707398
02.10.2002 00:00:00;414519;45.6273815505981;45.6273815505981
03.10.2002 00:00:00;414519;45.6153887634278;45.6153887634278
04.10.2002 00:00:00;414519;44.4763572418213;44.4763572418213
07.10.2002 00:00:00;414519;43.5799847564698;43.5799847564698
08.10.2002 00:00:00;414519;45.030508441925;45.030508441925
09.10.2002 00:00:00;414519;41.9607528453827;41.9607528453827
10.10.2002 00:00:00;414519;46.533421546936;46.533421546936
11.10.2002 00:00:00;414519;49.0148392257691;49.0148392257691
14.10.2002 00:00:00;414519;47.6641744640351;47.6641744640351
15.10.2002 00:00:00;414519;51.4186407775878;51.4186407775878
16.10.2002 00:00:00;414519;48.5356313781738;48.5356313781738
17.10.2002 00:00:00;414519;52.3457581176758;52.3457581176758
18.10.2002 00:00:00;414519;51.2268725284576;51.2268725284576
21.10.2002 00:00:00;414519;54.2467192161561;54.2467192161561
22.10.2002 00:00:00;414519;51.6260267162323;51.6260267162323
23.10.2002 00:00:00;414519;51.3744825942993;51.3744825942993
24.10.2002 00:00:00;414519;49.912748626709;49.912748626709
25.10.2002 00:00:00;414519;50.1911392810822;50.1911392810822
28.10.2002 00:00:00;414519;48.8682187091827;48.8682187091827
29.10.2002 00:00:00;414519;47.1331215499878;47.1331215499878
30.10.2002 00:00:00;414519;47.4939007759094;47.4939007759094
31.10.2002 00:00:00;414519;47.6084677642822;47.6084677642822
01.11.2002 00:00:00;414519;49.0968507652282;49.0968507652282
04.11.2002 00:00:00;414519;48.9383176197052;48.9383176197052
05.11.2002 00:00:00;414519;48.8102356948852;48.8102356948852
06.11.2002 00:00:00;414519;50.3205043060303;50.3205043060303
07.11.2002 00:00:00;414519;47.84814075737;47.84814075737
08.11.2002 00:00:00;414519;46.6559027954102;46.6559027954102
11.11.2002 00:00:00;414519;45.5467984924316;45.5467984924316
12.11.2002 00:00:00;414519;47.3366823596954;47.3366823596954
13.11.2002 00:00:00;414519;47.0209292415619;47.0209292415619
14.11.2002 00:00:00;414519;48.5805943668365;48.5805943668365
15.11.2002 00:00:00;414519;48.5681907569885;48.5681907569885
18.11.2002 00:00:00;414519;47.4664938171387;47.4664938171387
19.11.2002 00:00:00;414519;47.4821764526368;47.4821764526368
20.11.2002 00:00:00;414519;48.2548015213013;48.2548015213013
21.11.2002 00:00:00;414519;48.0536144580841;48.0536144580841
22.11.2002 00:00:00;414519;46.9537659187316;46.9537659187316
25.11.2002 00:00:00;414519;47.4095618438721;47.4095618438721
26.11.2002 00:00:00;414519;47.364549230957;47.364549230957
27.11.2002 00:00:00;414519;49.6152631542206;49.6152631542206
29.11.2002 00:00:00;414519;50.4155378433228;50.4155378433228
02.12.2002 00:00:00;414519;49.0857285388946;49.0857285388946
03.12.2002 00:00:00;414519;48.2996638469696;48.2996638469696
04.12.2002 00:00:00;414519;47.8943650684356;47.8943650684356
05.12.2002 00:00:00;414519;47.4679443054199;47.4679443054199
06.12.2002 00:00:00;414519;47.694745362854;47.694745362854
09.12.2002 00:00:00;414519;46.9182308151245;46.9182308151245
10.12.2002 00:00:00;414519;47.6800142429352;47.6800142429352
11.12.2002 00:00:00;414519;47.9832850593567;47.9832850593567
12.12.2002 00:00:00;414519;47.8431135505676;47.8431135505676
13.12.2002 00:00:00;414519;47.433;47.433
16.12.2002 00:00:00;414519;49.5525785057068;49.5525785057068
17.12.2002 00:00:00;414519;49.1685707435607;49.1685707435607
18.12.2002 00:00:00;414519;48.1114341487885;48.1114341487885
19.12.2002 00:00:00;414519;47.9122607467651;47.9122607467651
20.12.2002 00:00:00;414519;48.5926214859009;48.5926214859009
23.12.2002 00:00:00;414519;48.4943307014465;48.4943307014465
24.12.2002 00:00:00;414519;48.04965;48.04965
26.12.2002 00:00:00;414519;47.9373474105835;47.9373474105835
27.12.2002 00:00:00;414519;47.4818907325744;47.4818907325744
30.12.2002 00:00:00;414519;47.9252045837403;47.9252045837403
31.12.2002 00:00:00;414519;47.8280564552307;47.8280564552307
02.01.2003 00:00:00;414519;49.8556962944031;49.8556962944031
03.01.2003 00:00:00;414519;49.544874974823;49.544874974823
06.01.2003 00:00:00;414519;50.1307751251221;50.1307751251221
07.01.2003 00:00:00;414519;50.0107885353088;50.0107885353088
08.01.2003 00:00:00;414519;48.9473989772797;48.9473989772797
09.01.2003 00:00:00;414519;49.8257916889191;49.8257916889191
10.01.2003 00:00:00;414519;49.9701164482117;49.9701164482117
13.01.2003 00:00:00;414519;49.4324785522461;49.4324785522461
14.01.2003 00:00:00;414519;49.4558828659057;49.4558828659057
15.01.2003 00:00:00;414519;49.0293585571289;49.0293585571289
16.01.2003 00:00:00;414519;49.7732569896698;49.7732569896698
17.01.2003 00:00:00;414519;48.9146189975739;48.9146189975739
21.01.2003 00:00:00;414519;47.6772148571014;47.6772148571014
22.01.2003 00:00:00;414519;46.8208241462708;46.8208241462708
23.01.2003 00:00:00;414519;47.3088772834778;47.3088772834778
24.01.2003 00:00:00;414519;45.7594242954255;45.7594242954255
27.01.2003 00:00:00;414519;44.3493817184448;44.3493817184448
28.01.2003 00:00:00;414519;45.1265570137024;45.1265570137024
29.01.2003 00:00:00;414519;45.0504263137817;45.0504263137817
30.01.2003 00:00:00;414519;43.9968754333496;43.9968754333496
31.01.2003 00:00:00;414519;45.4802637054444;45.4802637054444
03.02.2003 00:00:00;414519;45.6384485816956;45.6384485816956
04.02.2003 00:00:00;414519;44.8440154209137;44.8440154209137
05.02.2003 00:00:00;414519;45.0277592960358;45.0277592960358
06.02.2003 00:00:00;414519;44.558875;44.558875
07.02.2003 00:00:00;414519;44.1654307064056;44.1654307064056
10.02.2003 00:00:00;414519;44.7384417037964;44.7384417037964
11.02.2003 00:00:00;414519;44.1385342956543;44.1385342956543
12.02.2003 00:00:00;414519;43.8416;43.8416
13.02.2003 00:00:00;414519;43.3719355773926;43.3719355773926
14.02.2003 00:00:00;414519;43.8833569892883;43.8833569892883
18.02.2003 00:00:00;414519;45.2803195724487;45.2803195724487
19.02.2003 00:00:00;414519;44.5760114318847;44.5760114318847
20.02.2003 00:00:00;414519;43.5205781410217;43.5205781410217
21.02.2003 00:00:00;414519;44.4173608585358;44.4173608585358
24.02.2003 00:00:00;414519;43.369975;43.369975
25.02.2003 00:00:00;414519;43.054561415863;43.054561415863
26.02.2003 00:00:00;414519;43.1748435653687;43.1748435653687
27.02.2003 00:00:00;414519;43.5284121417999;43.5284121417999
28.02.2003 00:00:00;414519;43.054561415863;43.054561415863
03.03.2003 00:00:00;414519;42.6287582817078;42.6287582817078
04.03.2003 00:00:00;414519;41.0199564018249;41.0199564018249
05.03.2003 00:00:00;414519;40.5110383300781;40.5110383300781
06.03.2003 00:00:00;414519;39.3856793060303;39.3856793060303
07.03.2003 00:00:00;414519;39.6120274459839;39.6120274459839
10.03.2003 00:00:00;414519;38.7750782947498;38.7750782947498
11.03.2003 00:00:00;414519;38.5647612934283;38.5647612934283
12.03.2003 00:00:00;414519;39.4374110075763;39.4374110075763
13.03.2003 00:00:00;414519;40.7710408730643;40.7710408730643
14.03.2003 00:00:00;414519;41.4292000779673;41.4292000779673
17.03.2003 00:00:00;414519;43.1189254467905;43.1189254467905
18.03.2003 00:00:00;414519;44.5784285450201;44.5784285450201
19.03.2003 00:00:00;414519;44.7969411665052;44.7969411665052
20.03.2003 00:00:00;414519;44.6633737704582;44.6633737704582
21.03.2003 00:00:00;414519;47.0839775614621;47.0839775614621
24.03.2003 00:00:00;414519;44.7006930338682;44.7006930338682
25.03.2003 00:00:00;414519;44.7663600804706;44.7663600804706
26.03.2003 00:00:00;414519;44.5324299382144;44.5324299382144
27.03.2003 00:00:00;414519;43.6343244580064;43.6343244580064
28.03.2003 00:00:00;414519;43.4847639350936;43.4847639350936
31.03.2003 00:00:00;414519;41.4910279162866;41.4910279162866
01.04.2003 00:00:00;414519;42.6373023016478;42.6373023016478
02.04.2003 00:00:00;414519;44.0062953952908;44.0062953952908
03.04.2003 00:00:00;414519;43.3380227104687;43.3380227104687
04.04.2003 00:00:00;414519;43.1888409962509;43.1888409962509
07.04.2003 00:00:00;414519;44.350711768263;44.350711768263
08.04.2003 00:00:00;414519;43.1042572850779;43.1042572850779
09.04.2003 00:00:00;414519;41.987869041967;41.987869041967
10.04.2003 00:00:00;414519;42.6659244523686;42.6659244523686
11.04.2003 00:00:00;414519;42.6235624889109;42.6235624889109
14.04.2003 00:00:00;414519;42.8424699487265;42.8424699487265
15.04.2003 00:00:00;414519;43.1885934346959;43.1885934346959
16.04.2003 00:00:00;414519;42.3872546388944;42.3872546388944
17.04.2003 00:00:00;414519;42.3607297582619;42.3607297582619
21.04.2003 00:00:00;414519;42.3055712977995;42.3055712977995
22.04.2003 00:00:00;414519;43.281534254237;43.281534254237
23.04.2003 00:00:00;414519;43.8588436976368;43.8588436976368
24.04.2003 00:00:00;414519;43.2449678607057;43.2449678607057
25.04.2003 00:00:00;414519;42.2043504890989;42.2043504890989
28.04.2003 00:00:00;414519;43.306372376538;43.306372376538
29.04.2003 00:00:00;414519;43.9334362595493;43.9334362595493
30.04.2003 00:00:00;414519;44.3540260780303;44.3540260780303
01.05.2003 00:00:00;414519;43.1409231294997;43.1409231294997
02.05.2003 00:00:00;414519;43.5863177491327;43.5863177491327
05.05.2003 00:00:00;414519;43.4992407338016;43.4992407338016
06.05.2003 00:00:00;414519;43.1554733720618;43.1554733720618
07.05.2003 00:00:00;414519;42.3242725524212;42.3242725524212
08.05.2003 00:00:00;414519;41.4128048793858;41.4128048793858
09.05.2003 00:00:00;414519;41.3844272411088;41.3844272411088
12.05.2003 00:00:00;414519;41.6789267394528;41.6789267394528
13.05.2003 00:00:00;414519;41.9722975042957;41.9722975042957
14.05.2003 00:00:00;414519;41.5138809473191;41.5138809473191
15.05.2003 00:00:00;414519;42.0127649182893;42.0127649182893
16.05.2003 00:00:00;414519;42.1744835371606;42.1744835371606
19.05.2003 00:00:00;414519;40.5472640742391;40.5472640742391
20.05.2003 00:00:00;414519;40.6763621527809;40.6763621527809
21.05.2003 00:00:00;414519;40.7039468864328;40.7039468864328
22.05.2003 00:00:00;414519;41.0423461924676;41.0423461924676
23.05.2003 00:00:00;414519;40.7312938145027;40.7312938145027
27.05.2003 00:00:00;414519;41.0526315789525;41.0526315789525
28.05.2003 00:00:00;414519;41.6139513636238;41.6139513636238
29.05.2003 00:00:00;414519;41.0354832909991;41.0354832909991
30.05.2003 00:00:00;414519;41.2188515579908;41.2188515579908
02.06.2003 00:00:00;414519;42.0073697793388;42.0073697793388
03.06.2003 00:00:00;414519;42.184556393834;42.184556393834
04.06.2003 00:00:00;414519;43.3456181601146;43.3456181601146
05.06.2003 00:00:00;414519;42.9921001144489;42.9921001144489
06.06.2003 00:00:00;414519;42.1543687556984;42.1543687556984
09.06.2003 00:00:00;414519;41.8244127032815;41.8244127032815
10.06.2003 00:00:00;414519;42.089499980063;42.089499980063
11.06.2003 00:00:00;414519;42.7058421592;42.7058421592
12.06.2003 00:00:00;414519;43.5595380104812;43.5595380104812
13.06.2003 00:00:00;414519;43.0117617357182;43.0117617357182
16.06.2003 00:00:00;414519;43.3772583832836;43.3772583832836
17.06.2003 00:00:00;414519;44.094421588825;44.094421588825
18.06.2003 00:00:00;414519;43.7831373036835;43.7831373036835
19.06.2003 00:00:00;414519;44.1581940375675;44.1581940375675
20.06.2003 00:00:00;414519;44.433913230075;44.433913230075
23.06.2003 00:00:00;414519;43.8392265203094;43.8392265203094
24.06.2003 00:00:00;414519;44.224765868889;44.224765868889
25.06.2003 00:00:00;414519;44.2165647589345;44.2165647589345
26.06.2003 00:00:00;414519;45.2468475373842;45.2468475373842
27.06.2003 00:00:00;414519;44.7791355742947;44.7791355742947
30.06.2003 00:00:00;414519;44.5283033597627;44.5283033597627
01.07.2003 00:00:00;414519;43.1336793634848;43.1336793634848
02.07.2003 00:00:00;414519;43.4631432545;43.4631432545
03.07.2003 00:00:00;414519;43.0008762256077;43.0008762256077
07.07.2003 00:00:00;414519;44.3395393982243;44.3395393982243
08.07.2003 00:00:00;414519;44.6727139293973;44.6727139293973
09.07.2003 00:00:00;414519;44.0529795935325;44.0529795935325
10.07.2003 00:00:00;414519;43.7322959683757;43.7322959683757
11.07.2003 00:00:00;414519;44.1168674909579;44.1168674909579
14.07.2003 00:00:00;414519;44.4533318413684;44.4533318413684
15.07.2003 00:00:00;414519;44.4012035759229;44.4012035759229
16.07.2003 00:00:00;414519;45.1575141034661;45.1575141034661
17.07.2003 00:00:00;414519;45.7500014986311;45.7500014986311
18.07.2003 00:00:00;414519;46.9287247917372;46.9287247917372
21.07.2003 00:00:00;414519;47.035853745119;47.035853745119
22.07.2003 00:00:00;414519;47.6039172418224;47.6039172418224
23.07.2003 00:00:00;414519;47.148892846757;47.148892846757
24.07.2003 00:00:00;414519;47.075233196757;47.075233196757
25.07.2003 00:00:00;414519;48.4755845885095;48.4755845885095
28.07.2003 00:00:00;414519;48.3428061034516;48.3428061034516
29.07.2003 00:00:00;414519;48.6063792644082;48.6063792644082
30.07.2003 00:00:00;414519;49.026487919557;49.026487919557
31.07.2003 00:00:00;414519;50.1064784567019;50.1064784567019
01.08.2003 00:00:00;414519;49.9326222541144;49.9326222541144
04.08.2003 00:00:00;414519;48.9127546022469;48.9127546022469
05.08.2003 00:00:00;414519;48.2862460878254;48.2862460878254
06.08.2003 00:00:00;414519;47.7797352795034;47.7797352795034
07.08.2003 00:00:00;414519;46.775619048533;46.775619048533
08.08.2003 00:00:00;414519;47.5112736968144;47.5112736968144
11.08.2003 00:00:00;414519;47.8415665331553;47.8415665331553
12.08.2003 00:00:00;414519;48.1363425691765;48.1363425691765
13.08.2003 00:00:00;414519;48.2233516126805;48.2233516126805
14.08.2003 00:00:00;414519;48.768779989645;48.768779989645
15.08.2003 00:00:00;414519;48.8606012013961;48.8606012013961
18.08.2003 00:00:00;414519;49.9999984949186;49.9999984949186
19.08.2003 00:00:00;414519;50.7947992038176;50.7947992038176
20.08.2003 00:00:00;414519;50.5927064043183;50.5927064043183
21.08.2003 00:00:00;414519;51.2773729588863;51.2773729588863
22.08.2003 00:00:00;414519;50.8962210974215;50.8962210974215
25.08.2003 00:00:00;414519;50.7085025858959;50.7085025858959
26.08.2003 00:00:00;414519;50.8581498235682;50.8581498235682
27.08.2003 00:00:00;414519;50.1839919384182;50.1839919384182
28.08.2003 00:00:00;414519;51.0474598580128;51.0474598580128
29.08.2003 00:00:00;414519;50.5012414673155;50.5012414673155
02.09.2003 00:00:00;414519;51.2192876066316;51.2192876066316
03.09.2003 00:00:00;414519;51.9668939534225;51.9668939534225
04.09.2003 00:00:00;414519;51.1300488726745;51.1300488726745
05.09.2003 00:00:00;414519;50.2753292761536;50.2753292761536
08.09.2003 00:00:00;414519;50.1265810368074;50.1265810368074
09.09.2003 00:00:00;414519;48.5907115917206;48.5907115917206
10.09.2003 00:00:00;414519;47.7439586670141;47.7439586670141
11.09.2003 00:00:00;414519;47.7122425287296;47.7122425287296
12.09.2003 00:00:00;414519;48.9038637063574;48.9038637063574
15.09.2003 00:00:00;414519;47.7092794841341;47.7092794841341
16.09.2003 00:00:00;414519;48.8060099229266;48.8060099229266
17.09.2003 00:00:00;414519;48.5128126911655;48.5128126911655
18.09.2003 00:00:00;414519;48.8396908554955;48.8396908554955
19.09.2003 00:00:00;414519;48.7471126802484;48.7471126802484
22.09.2003 00:00:00;414519;47.0732142828195;47.0732142828195
23.09.2003 00:00:00;414519;47.6377602279806;47.6377602279806
24.09.2003 00:00:00;414519;46.2519645524279;46.2519645524279
25.09.2003 00:00:00;414519;45.7900702750513;45.7900702750513
26.09.2003 00:00:00;414519;45.6276749735619;45.6276749735619
29.09.2003 00:00:00;414519;46.6572965038668;46.6572965038668
30.09.2003 00:00:00;414519;44.7817521830916;44.7817521830916
01.10.2003 00:00:00;414519;45.4007707539415;45.4007707539415
02.10.2003 00:00:00;414519;45.7689682724466;45.7689682724466
03.10.2003 00:00:00;414519;46.3682357386367;46.3682357386367
06.10.2003 00:00:00;414519;47.2667429379633;47.2667429379633
07.10.2003 00:00:00;414519;46.8387876795357;46.8387876795357
08.10.2003 00:00:00;414519;46.600951863178;46.600951863178
09.10.2003 00:00:00;414519;46.5183413547019;46.5183413547019
10.10.2003 00:00:00;414519;46.1322683251987;46.1322683251987
13.10.2003 00:00:00;414519;47.4547160951987;47.4547160951987
14.10.2003 00:00:00;414519;47.3258821285703;47.3258821285703
15.10.2003 00:00:00;414519;47.4601007150257;47.4601007150257
16.10.2003 00:00:00;414519;47.4858419019975;47.4858419019975
17.10.2003 00:00:00;414519;48.0995165041256;48.0995165041256
20.10.2003 00:00:00;414519;47.8758154187696;47.8758154187696
21.10.2003 00:00:00;414519;48.0479186417306;48.0479186417306
22.10.2003 00:00:00;414519;47.2508591065292;47.2508591065292
23.10.2003 00:00:00;414519;47.3966301552431;47.3966301552431
24.10.2003 00:00:00;414519;47.6730312863756;47.6730312863756
27.10.2003 00:00:00;414519;47.8086627684381;47.8086627684381
28.10.2003 00:00:00;414519;48.8026784055889;48.8026784055889
29.10.2003 00:00:00;414519;48.882036642929;48.882036642929
30.10.2003 00:00:00;414519;49.8201749487719;49.8201749487719
31.10.2003 00:00:00;414519;49.6811457479135;49.6811457479135
03.11.2003 00:00:00;414519;50.2806316744982;50.2806316744982
04.11.2003 00:00:00;414519;50.1942846629093;50.1942846629093
05.11.2003 00:00:00;414519;50.8010144264176;50.8010144264176
06.11.2003 00:00:00;414519;50.6653816598536;50.6653816598536
07.11.2003 00:00:00;414519;51.1452380687116;51.1452380687116
10.11.2003 00:00:00;414519;50.2883600463654;50.2883600463654
11.11.2003 00:00:00;414519;50.5887483645879;50.5887483645879
12.11.2003 00:00:00;414519;50.3932256272501;50.3932256272501
13.11.2003 00:00:00;414519;49.9527944064367;49.9527944064367
14.11.2003 00:00:00;414519;49.4215706652953;49.4215706652953
17.11.2003 00:00:00;414519;48.7144674140111;48.7144674140111
18.11.2003 00:00:00;414519;48.5394617620898;48.5394617620898
19.11.2003 00:00:00;414519;48.2311306616688;48.2311306616688
20.11.2003 00:00:00;414519;47.6823423110758;47.6823423110758
21.11.2003 00:00:00;414519;47.9567707168698;47.9567707168698
24.11.2003 00:00:00;414519;49.4011720440093;49.4011720440093
25.11.2003 00:00:00;414519;49.4637390282189;49.4637390282189
26.11.2003 00:00:00;414519;49.7837340030018;49.7837340030018
28.11.2003 00:00:00;414519;48.8879608868755;48.8879608868755
01.12.2003 00:00:00;414519;50.9843167599974;50.9843167599974
02.12.2003 00:00:00;414519;50.6546906782954;50.6546906782954
03.12.2003 00:00:00;414519;49.954512882209;49.954512882209
04.12.2003 00:00:00;414519;50.6648928561109;50.6648928561109
05.12.2003 00:00:00;414519;50.0415065410069;50.0415065410069
08.12.2003 00:00:00;414519;50.3120384773885;50.3120384773885
09.12.2003 00:00:00;414519;51.0666118040345;51.0666118040345
10.12.2003 00:00:00;414519;50.2131860269488;50.2131860269488
11.12.2003 00:00:00;414519;50.524761341329;50.524761341329
12.12.2003 00:00:00;414519;51.3546710963959;51.3546710963959
15.12.2003 00:00:00;414519;51.5111705163462;51.5111705163462
16.12.2003 00:00:00;414519;50.9917082931526;50.9917082931526
17.12.2003 00:00:00;414519;51.4274091437465;51.4274091437465
18.12.2003 00:00:00;414519;51.6032625713984;51.6032625713984
19.12.2003 00:00:00;414519;51.0667517590989;51.0667517590989
22.12.2003 00:00:00;414519;51.4154367287685;51.4154367287685
23.12.2003 00:00:00;414519;51.2934525165234;51.2934525165234
24.12.2003 00:00:00;414519;51.1389348734176;51.1389348734176
26.12.2003 00:00:00;414519;51.6235863064718;51.6235863064718
29.12.2003 00:00:00;414519;51.709743272552;51.709743272552
30.12.2003 00:00:00;414519;50.9703298903697;50.9703298903697
31.12.2003 00:00:00;414519;50.9024382945587;50.9024382945587
02.01.2004 00:00:00;414519;50.6849310207458;50.6849310207458
05.01.2004 00:00:00;414519;51.1885883313162;51.1885883313162
06.01.2004 00:00:00;414519;50.673534677448;50.673534677448
07.01.2004 00:00:00;414519;50.4079203086324;50.4079203086324
08.01.2004 00:00:00;414519;51.2298367080969;51.2298367080969
09.01.2004 00:00:00;414519;49.4446636138351;49.4446636138351
12.01.2004 00:00:00;414519;49.6287612348574;49.6287612348574
13.01.2004 00:00:00;414519;49.9606000991953;49.9606000991953
14.01.2004 00:00:00;414519;50.3487072272126;50.3487072272126
15.01.2004 00:00:00;414519;50.337757412849;50.337757412849
16.01.2004 00:00:00;414519;49.329585408839;49.329585408839
20.01.2004 00:00:00;414519;48.644747271381;48.644747271381
21.01.2004 00:00:00;414519;48.1322184828162;48.1322184828162
22.01.2004 00:00:00;414519;46.7850092600083;46.7850092600083
23.01.2004 00:00:00;414519;46.3249224593587;46.3249224593587
26.01.2004 00:00:00;414519;47.2770883101837;47.2770883101837
27.01.2004 00:00:00;414519;47.4849094567404;47.4849094567404
28.01.2004 00:00:00;414519;46.7118361690882;46.7118361690882
29.01.2004 00:00:00;414519;46.5325109560871;46.5325109560871
30.01.2004 00:00:00;414519;47.245435734066;47.245435734066
02.02.2004 00:00:00;414519;46.8631416354682;46.8631416354682
03.02.2004 00:00:00;414519;45.6834544571374;45.6834544571374
04.02.2004 00:00:00;414519;45.5849354083721;45.5849354083721
05.02.2004 00:00:00;414519;46.1182122032483;46.1182122032483
06.02.2004 00:00:00;414519;47.0994148783916;47.0994148783916
09.02.2004 00:00:00;414519;46.7245467742221;46.7245467742221
10.02.2004 00:00:00;414519;46.950020878299;46.950020878299
11.02.2004 00:00:00;414519;48.1017663681612;48.1017663681612
12.02.2004 00:00:00;414519;47.0348919823852;47.0348919823852
13.02.2004 00:00:00;414519;46.2382445141066;46.2382445141066
17.02.2004 00:00:00;414519;46.3313825878716;46.3313825878716
18.02.2004 00:00:00;414519;45.9303227910175;45.9303227910175
19.02.2004 00:00:00;414519;46.9759342563235;46.9759342563235
20.02.2004 00:00:00;414519;46.7010304438132;46.7010304438132
23.02.2004 00:00:00;414519;47.0983198792529;47.0983198792529
24.02.2004 00:00:00;414519;47.0663477762712;47.0663477762712
25.02.2004 00:00:00;414519;47.3052450886591;47.3052450886591
26.02.2004 00:00:00;414519;47.5728149167157;47.5728149167157
27.02.2004 00:00:00;414519;47.4646167624011;47.4646167624011
01.03.2004 00:00:00;414519;48.0388204819077;48.0388204819077
02.03.2004 00:00:00;414519;47.6186601433745;47.6186601433745
03.03.2004 00:00:00;414519;48.4803320211407;48.4803320211407
04.03.2004 00:00:00;414519;48.2914792308595;48.2914792308595
05.03.2004 00:00:00;414519;48.1926708763251;48.1926708763251
08.03.2004 00:00:00;414519;47.3641537111751;47.3641537111751
09.03.2004 00:00:00;414519;46.9586387071199;46.9586387071199
10.03.2004 00:00:00;414519;46.0212433260251;46.0212433260251
11.03.2004 00:00:00;414519;46.2484637358581;46.2484637358581
12.03.2004 00:00:00;414519;47.3062719366208;47.3062719366208
15.03.2004 00:00:00;414519;46.0454971179962;46.0454971179962
16.03.2004 00:00:00;414519;46.008096918886;46.008096918886
17.03.2004 00:00:00;414519;46.7472046835064;46.7472046835064
18.03.2004 00:00:00;414519;46.113694572651;46.113694572651
19.03.2004 00:00:00;414519;45.5038870454839;45.5038870454839
22.03.2004 00:00:00;414519;44.8878821038933;44.8878821038933
23.03.2004 00:00:00;414519;45.283480085197;45.283480085197
24.03.2004 00:00:00;414519;45.2443426575728;45.2443426575728
25.03.2004 00:00:00;414519;46.5792930444553;46.5792930444553
26.03.2004 00:00:00;414519;46.151318742443;46.151318742443
29.03.2004 00:00:00;414519;47.5986138844494;47.5986138844494
30.03.2004 00:00:00;414519;47.5260508484002;47.5260508484002
31.03.2004 00:00:00;414519;47.6930622030928;47.6930622030928
01.04.2004 00:00:00;414519;48.0275959163517;48.0275959163517
02.04.2004 00:00:00;414519;48.7660331992403;48.7660331992403
05.04.2004 00:00:00;414519;49.7429088922179;49.7429088922179
06.04.2004 00:00:00;414519;49.5616196600044;49.5616196600044
07.04.2004 00:00:00;414519;49.029007380427;49.029007380427
08.04.2004 00:00:00;414519;49.3799599390181;49.3799599390181
12.04.2004 00:00:00;414519;50.0832996177673;50.0832996177673
13.04.2004 00:00:00;414519;49.5198323482761;49.5198323482761
14.04.2004 00:00:00;414519;49.8322695143788;49.8322695143788
15.04.2004 00:00:00;414519;50.9654122603027;50.9654122603027
16.04.2004 00:00:00;414519;51.3409305410101;51.3409305410101
19.04.2004 00:00:00;414519;51.4114896786328;51.4114896786328
20.04.2004 00:00:00;414519;51.1403669951927;51.1403669951927
21.04.2004 00:00:00;414519;51.8249409873166;51.8249409873166
